2,Audi RS 3 LMS TCR,baseline
Steering Wheel Angle,Yaw Rate
321.240784,2.060543
320.208710,2.060362
319.209961,2.062064
318.211212,2.063036
317.179138,2.055363
316.180359,2.048987
315.181641,2.042446
314.149536,2.033478
313.150787,2.025540
312.152069,2.019481
311.119995,2.012441
310.121185,2.006726
309.089172,1.999424
308.090393,1.993082
307.091644,1.985362
306.059570,1.980773
305.060852,1.971917
304.062042,1.966737
303.029999,1.960377
302.031219,1.951660
301.032471,1.947839
300.000427,1.938788
299.001678,1.932817
298.002899,1.927583
296.970825,1.918254
295.972076,1.914351
294.973328,1.906419
293.941254,1.898548
292.942474,1.894876
291.943726,1.885580
290.911652,1.879565
289.912903,1.874202
288.914154,1.865229
287.882080,1.860904
286.883301,1.853229
285.884552,1.845389
284.852478,1.841470
283.853729,1.832280
282.854980,1.826466
281.822876,1.820893
280.824127,1.812105
279.825317,1.807909
278.793304,1.799885
277.794556,1.792099
276.795776,1.788647
275.763702,1.779422
274.764984,1.772680
273.766174,1.768036
272.734131,1.758737
271.735382,1.754493
270.736603,1.747328
269.704529,1.738506
268.705780,1.735433
267.707001,1.726446
266.674927,1.719560
265.676178,1.715151
264.677399,1.705838
263.645355,1.701177
262.646576,1.694392
261.647827,1.685500
260.615753,1.682201
259.617004,1.673496
258.584900,1.666365
257.586182,1.661996
256.587372,1.652547
255.555344,1.648443
254.556549,1.640989
253.557785,1.632620
252.525742,1.629268
251.526947,1.620003
250.528183,1.614135
249.496140,1.609011
248.497330,1.599279
247.498581,1.595897
246.466522,1.587865
245.467773,1.579688
244.468964,1.576532
243.436951,1.566836
242.438156,1.561810
241.439392,1.555777
240.407318,1.546311
239.408585,1.543226
238.409760,1.534699
237.377716,1.527215
236.378922,1.523659
235.380157,1.513711
234.348114,1.509175
233.349335,1.502597
232.350586,1.493819
231.318527,1.490480
230.319733,1.481212
229.320969,1.475354
228.288895,1.470485
227.290115,1.460600
226.291382,1.457209
225.259277,1.449298
224.260529,1.441390
223.261749,1.438375
222.229706,1.428216
221.230927,1.423238
220.232147,1.417810
219.200073,1.407761
218.201324,1.404928
217.202515,1.396937
216.170486,1.388858
215.171677,1.385381
214.172928,1.375695
213.140839,1.371064
212.142090,1.365021
211.143280,1.355555
210.111252,1.352640
209.112442,1.343829
208.113693,1.336969
207.081604,1.332901
206.082840,1.322730
205.050766,1.318795
204.052017,1.312096
203.053238,1.303319
202.021164,1.299940
201.022385,1.290279
200.023605,1.285517
198.991516,1.279547
197.992783,1.270212
196.994003,1.267596
195.961929,1.258066
194.963150,1.251665
193.964371,1.247579
192.932281,1.237612
191.933533,1.234123
190.934753,1.226185
189.902695,1.218154
188.903946,1.215308
187.905136,1.205140
186.873108,1.199546
185.874298,1.194701
184.875549,1.184903
183.843445,1.182079
182.844696,1.173058
181.845901,1.165537
180.813843,1.162513
179.815063,1.152822
178.816269,1.147276
177.784180,1.141798
176.785431,1.131901
175.786636,1.128066
174.754608,1.123401
173.755783,1.112466
172.757034,1.105926
171.724945,1.103300
170.726196,1.095198
169.727371,1.086717
168.695328,1.082212
167.696548,1.074983
166.697769,1.067221
165.665665,1.063396
164.666916,1.055565
163.668106,1.046234
162.636078,1.042640
161.637283,1.038305
160.638535,1.027315
159.606430,1.020275
158.607651,1.018307
157.608841,1.010185
156.576813,1.000432
155.578003,0.996578
154.545944,0.989800
153.547165,0.981694
152.548386,0.977951
151.516296,0.969891
150.517532,0.960555
149.518738,0.957750
148.486664,0.952425
147.487885,0.941451
146.489105,0.934964
145.457016,0.932857
144.458267,0.924767
143.459503,0.914627
142.427399,0.911054
141.428650,0.904302
140.429840,0.896310
139.397781,0.892890
138.399002,0.882378
137.400223,0.877879
136.368118,0.872475
135.369385,0.862502
134.370560,0.860159
133.338501,0.850061
132.339691,0.844347
131.340958,0.840217
130.308853,0.829451
129.310074,0.826718
128.311264,0.818406
127.279228,0.810550
126.280426,0.807726
125.281647,0.796943
124.249550,0.792905
123.250801,0.786349
122.251991,0.777200
121.219940,0.774987
120.221115,0.764612
119.222366,0.759381
118.190239,0.754303
117.191505,0.743978
116.192688,0.741601
115.160629,0.732569
114.161819,0.725377
113.163063,0.722391
112.130974,0.711010
111.132202,0.707966
110.133385,0.700868
109.101326,0.691314
108.102509,0.689698
107.103767,0.679403
106.071671,0.673536
105.072891,0.669003
104.074081,0.658211
103.042015,0.656112
102.043213,0.647214
101.011185,0.639428
100.012398,0.636749
99.013596,0.625589
97.981529,0.622228
96.982719,0.615335
95.983971,0.606326
94.951881,0.603833
93.953102,0.592811
92.954285,0.589169
91.922226,0.582634
90.923409,0.573256
89.924667,0.571258
88.892548,0.560335
87.893791,0.555739
86.894981,0.550278
85.862923,0.540405
84.864113,0.538396
83.865334,0.527911
82.833237,0.521939
81.834457,0.518169
80.835648,0.507488
79.803581,0.504843
78.804771,0.496308
77.806030,0.488020
76.773903,0.486046
75.775154,0.474758
74.776337,0.470774
73.744286,0.464662
72.745476,0.454664
71.746696,0.453234
70.714600,0.442615
69.715820,0.436405
68.717003,0.433075
67.684944,0.421771
66.686142,0.419654
65.687355,0.410522
64.655266,0.402886
63.656487,0.400790
62.657673,0.389058
61.625610,0.385629
60.626797,0.378833
59.628021,0.369549
58.595932,0.367522
57.597145,0.356498
56.598400,0.351780
55.566277,0.347268
54.567528,0.336301
53.568687,0.334422
52.536625,0.324590
51.537811,0.318011
50.505753,0.314699
49.506939,0.303137
48.508160,0.301146
47.476070,0.292541
46.477287,0.284450
45.478477,0.282155
44.446415,0.270277
43.447601,0.267727
42.448826,0.260690
41.416702,0.250912
40.417953,0.249620
39.419140,0.238102
38.387077,0.234041
37.388233,0.227976
36.389488,0.218163
35.357365,0.216489
34.358585,0.205143
33.359772,0.201467
32.327709,0.195349
31.328901,0.184899
30.330120,0.183755
29.297997,0.172899
28.299248,0.167590
27.300406,0.163532
26.268345,0.151446
25.269531,0.150399
24.270754,0.140617
23.238661,0.134404
22.239880,0.130220
21.241070,0.121473
20.209009,0.117747
19.210163,0.110161
18.211416,0.104495
17.179293,0.098176
16.180511,0.092590
15.181702,0.086716
14.149640,0.080811
13.150796,0.075074
12.152049,0.069212
11.119988,0.063342
10.121144,0.057486
9.122396,0.051746
8.090272,0.045889
7.091493,0.040014
6.092681,0.034370
5.060620,0.028311
4.061809,0.022587
3.062997,0.016894
2.030904,0.010858
1.032093,0.005142
0.000000,0.001796
-0.998747,0.006515
-1.997624,0.012340
-3.029652,0.018241
-4.028464,0.024011
-5.027276,0.029778
-6.059368,0.035637
-7.058115,0.041544
-8.056992,0.047228
-9.089020,0.053233
-10.087896,0.059059
-11.086643,0.064595
-12.118735,0.070764
-13.117547,0.076302
-14.116360,0.082149
-15.148452,0.088220
-16.147263,0.093795
-17.146011,0.099721
-18.178169,0.105563
-19.176916,0.111304
-20.175728,0.117114
-21.207819,0.126441
-22.206633,0.128887
-23.205444,0.138196
-24.237535,0.145599
-25.236284,0.147600
-26.235159,0.159671
-27.267187,0.162095
-28.266064,0.170363
-29.264811,0.178773
-30.296968,0.180958
-31.295717,0.192420
-32.294464,0.194968
-33.326618,0.202840
-34.325367,0.211913
-35.324245,0.213277
-36.356274,0.225020
-37.355083,0.228773
-38.353897,0.235004
-39.385986,0.244817
-40.384800,0.246303
-41.383614,0.257407
-42.415703,0.262771
-43.414516,0.266501
-44.413265,0.277899
-45.445419,0.279750
-46.444168,0.289667
-47.443043,0.295879
-48.475071,0.299430
-49.473949,0.311032
-50.472694,0.312992
-51.504852,0.321658
-52.503601,0.329415
-53.535759,0.331973
-54.534504,0.343655
-55.533318,0.346819
-56.565411,0.353723
-57.564224,0.363233
-58.563034,0.364566
-59.595127,0.375559
-60.593937,0.381336
-61.592751,0.385147
-62.624840,0.396212
-63.623653,0.397871
-64.622467,0.407779
-65.654556,0.414547
-66.653366,0.417688
-67.652184,0.428918
-68.684273,0.431374
-69.683090,0.439850
-70.681831,0.447927
-71.713989,0.450242
-72.712738,0.461545
-73.711617,0.464677
-74.743645,0.472564
-75.742516,0.480979
-76.741264,0.482961
-77.773361,0.494510
-78.772171,0.497841
-79.770981,0.505017
-80.803070,0.513923
-81.801888,0.515952
-82.800697,0.527034
-83.832787,0.532022
-84.831604,0.536398
-85.830414,0.547098
-86.862572,0.549560
-87.861313,0.558969
-88.860130,0.565464
-89.892227,0.568775
-90.891098,0.580311
-91.889847,0.582999
-92.921997,0.590841
-93.920753,0.599198
-94.919624,0.601453
-95.951653,0.612743
-96.950531,0.617354
-97.949280,0.621869
-98.981438,0.632673
-99.980179,0.634949
-100.979065,0.644204
-102.011093,0.651563
-103.009964,0.653832
-104.008705,0.665336
-105.040863,0.669573
-106.039619,0.675315
-107.071777,0.684973
-108.070587,0.687303
-109.069389,0.697929
-110.101486,0.702549
-111.100304,0.708241
-112.099113,0.718157
-113.131271,0.720307
-114.130020,0.729977
-115.128899,0.736250
-116.160927,0.740335
-117.159798,0.751162
-118.158554,0.753537
-119.190704,0.762651
-120.189453,0.769613
-121.188255,0.772974
-122.220421,0.783941
-123.219162,0.786724
-124.218033,0.794954
-125.250061,0.803020
-126.248947,0.805401
-127.247688,0.816469
-128.279846,0.820671
-129.278656,0.826642
-130.277481,0.836654
-131.309555,0.838711
-132.308380,0.847886
-133.307190,0.855366
-134.339355,0.858452
-135.338089,0.869364
-136.336975,0.872948
-137.369003,0.879462
-138.367874,0.889020
-139.366684,0.891352
-140.398773,0.901489
-141.397583,0.907054
-142.396408,0.911268
-143.428497,0.922183
-144.427368,0.924747
-145.426117,0.933005
-146.458282,0.941150
-147.457077,0.943471
-148.455902,0.954271
-149.487991,0.959027
-150.486877,0.964810
-151.485611,0.973913
-152.517776,0.976863
-153.516525,0.986804
-154.515396,0.992530
-155.547485,0.996904
-156.546295,1.007297
-157.578400,1.010373
-158.577271,1.018543
-159.576004,1.026504
-160.608170,1.029506
-161.606918,1.039999
-162.605804,1.044070
-163.637894,1.050681
-164.636765,1.060058
-165.635513,1.062208
-166.667603,1.072081
-167.666428,1.078298
-168.665222,1.082345
-169.697372,1.093093
-170.696136,1.096216
-171.695007,1.103698
-172.727097,1.112125
-173.725922,1.114872
-174.724731,1.125409
-175.756882,1.129771
-176.755630,1.135719
-177.754501,1.145552
-178.786606,1.148149
-179.785477,1.157157
-180.784225,1.164082
-181.816376,1.167728
-182.815125,1.178082
-183.813995,1.181982
-184.846100,1.188839
-185.844971,1.198099
-186.843719,1.200372
-187.875870,1.209871
-188.874695,1.216594
-189.873505,1.220184
-190.905594,1.230863
-191.904465,1.234412
-192.903214,1.241523
-193.935364,1.250298
-194.934189,1.252902
-195.933060,1.262971
-196.965088,1.268296
-197.963959,1.273687
-198.962769,1.283047
-199.994934,1.286209
-200.993683,1.295380
-201.992554,1.301486
-203.024643,1.306228
-204.023468,1.316178
-205.022263,1.319201
-206.054428,1.327677
-207.053177,1.335161
-208.085403,1.338758
-209.084137,1.348786
-210.082886,1.352818
-211.115112,1.359809
-212.113861,1.368649
-213.112732,1.371452
-214.144836,1.380968
-215.143646,1.387059
-216.142456,1.391237
-217.174606,1.401709
-218.173355,1.405094
-219.172241,1.412496
-220.204330,1.420956
-221.203201,1.423814
-222.201950,1.433363
-223.234177,1.439376
-224.232925,1.444108
-225.231796,1.453833
-226.263885,1.457383
-227.262772,1.465436
-228.261505,1.472837
-229.293671,1.476479
-230.292496,1.486444
-231.291367,1.490945
-232.323380,1.497396
-233.322250,1.506465
-234.321075,1.509339
-235.353226,1.518416
-236.351990,1.525727
-237.350861,1.529190
-238.382965,1.539115
-239.381836,1.543447
-240.380569,1.550397
-241.412811,1.559357
-242.411545,1.562232
-243.410416,1.571422
-244.442505,1.578031
-245.441391,1.582585
-246.440125,1.591911
-247.472305,1.595962
-248.471100,1.603759
-249.469971,1.611709
-250.502060,1.615247
-251.500946,1.624581
-252.499710,1.630294
-253.531860,1.635883
-254.530670,1.645166
-255.529404,1.648435
-256.561554,1.657240
-257.560394,1.664217
-258.559265,1.668176
-259.591339,1.678111
-260.590240,1.682284
-261.622253,1.689688
-262.621124,1.697999
-263.619934,1.701284
-264.652100,1.710503
-265.650909,1.717160
-266.649780,1.721472
-267.681824,1.730923
-268.680695,1.735729
-269.679504,1.742145
-270.711670,1.751391
-271.710449,1.754832
-272.709351,1.762739
-273.741425,1.770581
-274.740295,1.774667
-275.739075,1.784066
-276.771210,1.788774
-277.770050,1.795570
-278.768921,1.803813
-279.800995,1.807775
-280.799866,1.816748
-281.798615,1.822808
-282.830841,1.828165
-283.829590,1.837293
-284.828461,1.841114
-285.860565,1.849551
-286.859436,1.856674
-287.858246,1.860727
-288.890411,1.870463
-289.889130,1.875211
-290.888000,1.881927
-291.920105,1.890384
-292.918976,1.894040
-293.917816,1.902959
-294.949951,1.909556
-295.948761,1.914590
-296.947662,1.923369
-297.979736,1.928013
-298.978485,1.935647
-299.977356,1.943395
-301.009460,1.947439
-302.008331,1.956382
-303.007141,1.962268
-304.039307,1.968234
-305.038116,1.977027
-306.036987,1.980868
-307.069031,1.989525
-308.067963,1.996381
-309.066711,2.000769
-310.098877,2.010136
-311.097656,2.015379
-312.129852,2.021946
-313.128632,2.030269
-314.127502,2.034321
-315.159607,2.042919
-316.158478,2.050006
-317.157318,2.054167
-318.189453,2.063473
-319.188263,2.067361
-320.187134,2.066102
-321.219177,2.067967
