2,BMW M Hybrid V8,baseline
Steering Wheel Angle,Yaw Rate
270.022430,1.931379
269.006195,1.923903
268.017395,1.916997
267.001190,1.910045
266.012421,1.903114
265.023651,1.896200
264.007385,1.878221
263.018616,1.824164
262.002350,1.819866
261.013611,1.825070
260.024841,1.817026
259.008575,1.810288
258.019806,1.803701
257.003571,1.796995
256.014801,1.790434
254.998566,1.783660
254.009781,1.777090
253.021011,1.770430
252.004791,1.763605
251.015961,1.756905
249.999741,1.749918
249.010956,1.743044
248.022217,1.736192
247.005966,1.729108
246.017166,1.722262
245.000916,1.715161
244.012177,1.708293
243.023422,1.701413
242.007141,1.694361
241.018341,1.687486
240.002121,1.680396
239.013351,1.673593
238.024597,1.666670
237.008316,1.659597
236.019547,1.652718
235.003296,1.645697
234.014542,1.638833
233.025772,1.631938
232.009491,1.624890
231.020752,1.618026
230.004471,1.610943
229.015686,1.597441
227.999451,1.587842
227.010681,1.580462
226.021896,1.573614
225.005646,1.566604
224.016876,1.559787
223.000626,1.552764
222.011841,1.546001
221.023071,1.539154
220.006836,1.532110
219.018051,1.525370
218.001816,1.518368
217.013016,1.516902
216.024261,1.526939
215.007996,1.532876
214.019226,1.526778
213.002960,1.519382
212.014175,1.512189
211.025421,1.505018
210.009140,1.497585
209.020386,1.490448
208.004135,1.483182
207.015366,1.475920
206.026566,1.468732
205.010300,1.461426
204.021530,1.454197
203.005295,1.446901
202.016510,1.439730
201.000275,1.432316
200.011475,1.425204
199.022705,1.418089
198.006454,1.410688
197.017670,1.403621
196.001419,1.396238
195.012619,1.389088
194.023849,1.381938
193.007599,1.374635
192.018814,1.367407
191.002563,1.360108
190.013794,1.353060
189.024994,1.345871
188.008728,1.338616
187.019974,1.331460
186.003708,1.324032
185.014938,1.316960
184.026154,1.309943
183.009888,1.302618
182.021133,1.295495
181.004852,1.288136
180.016098,1.281049
178.999817,1.273663
178.011047,1.266707
177.022247,1.259395
176.005981,1.251816
175.017227,1.244551
174.000961,1.236963
173.012192,1.229448
172.023392,1.222381
171.007111,1.215067
170.018356,1.207981
169.002075,1.200819
168.013321,1.194019
167.024506,1.187057
166.008270,1.179715
165.019485,1.172653
164.003220,1.165334
163.014450,1.157990
162.025650,1.150859
161.009415,1.143607
160.020615,1.136413
159.004333,1.129164
158.015564,1.122026
157.026764,1.115063
156.010544,1.107676
155.021729,1.100547
154.005478,1.093348
153.016708,1.086163
152.000443,1.078915
151.011673,1.071906
150.022858,1.064817
149.006622,1.057432
148.017822,1.050338
147.001556,1.043184
146.012772,1.036028
145.023972,1.028950
144.007736,1.021634
143.018936,1.014526
142.002655,1.007411
141.013901,1.000251
140.025085,0.993129
139.008850,0.985860
138.020050,0.978769
137.003769,0.971501
136.014999,0.964544
135.026199,0.957416
134.009964,0.950179
133.021164,0.943106
132.004913,0.935870
131.016113,0.928848
130.027283,0.921691
129.011078,0.914347
128.022263,0.907371
127.006020,0.900100
126.017204,0.893039
125.000938,0.885827
124.012169,0.878745
123.023369,0.871692
122.007118,0.864457
121.018311,0.857398
120.002029,0.850168
119.013283,0.843116
118.024460,0.836015
117.008224,0.828754
116.019402,0.821662
115.003166,0.814529
114.014351,0.807396
113.025566,0.800359
112.009323,0.793151
111.020508,0.786087
110.004265,0.778883
109.015457,0.771812
108.026642,0.764826
107.010399,0.757589
106.021584,0.750493
105.005371,0.743253
104.016556,0.736213
103.027771,0.729245
102.011497,0.721878
101.022690,0.714843
100.006439,0.707701
99.017632,0.700635
98.001389,0.693425
97.012573,0.686332
96.023758,0.679299
95.007515,0.672115
94.018700,0.665079
93.002457,0.657830
92.013649,0.650778
91.024887,0.643772
90.008591,0.636539
89.019775,0.629478
88.003563,0.622336
87.014717,0.615222
86.025963,0.608291
85.009674,0.600974
84.020859,0.594000
83.004631,0.586669
82.015800,0.579719
81.027039,0.572815
80.010742,0.565533
79.021935,0.558547
78.005684,0.551275
77.016876,0.544225
76.000633,0.536889
75.011818,0.529898
74.023056,0.522986
73.006760,0.515761
72.017944,0.508698
71.001701,0.501464
70.012894,0.494507
69.024109,0.487411
68.007835,0.480180
67.018997,0.473189
66.002754,0.465946
65.013939,0.459055
64.025177,0.451979
63.008881,0.444826
62.020069,0.437761
61.003826,0.430528
60.015011,0.423582
59.026226,0.416589
58.009926,0.409279
57.021172,0.402365
56.004875,0.395077
55.016060,0.388077
54.027275,0.381054
53.011005,0.373776
52.022217,0.366835
51.005924,0.359604
50.017109,0.352669
49.000866,0.345362
48.012054,0.338474
47.023270,0.331468
46.006969,0.324184
45.018211,0.317134
44.001915,0.309972
43.013073,0.303024
42.024315,0.295929
41.008018,0.288741
40.019230,0.281821
39.002964,0.274526
38.014122,0.267642
37.025364,0.260507
36.009068,0.253344
35.020279,0.246410
34.003983,0.239137
33.015167,0.232198
32.026382,0.225189
31.010088,0.217941
30.021326,0.210932
29.005032,0.203777
28.016247,0.196758
27.027433,0.189819
26.011137,0.182539
25.022348,0.175565
24.006052,0.168324
23.017294,0.161365
22.000998,0.154180
21.012157,0.147165
20.023371,0.140126
19.007101,0.132976
18.018314,0.126023
17.002018,0.118817
16.013233,0.111726
15.024419,0.104799
14.008123,0.097582
13.019336,0.090630
12.003040,0.083358
11.014254,0.076462
10.025441,0.069375
9.009144,0.062215
8.020358,0.055181
7.004062,0.048020
6.015275,0.041071
5.026462,0.034030
4.010166,0.026774
3.021353,0.019806
2.005083,0.012438
1.016323,0.006066
0.000000,0.001677
-0.988760,0.006737
-1.977626,0.013019
-2.993896,0.020096
-3.982709,0.027123
-4.998979,0.034256
-5.987792,0.041324
-6.976604,0.048302
-7.992875,0.055506
-8.981688,0.062466
-9.997957,0.069738
-10.986771,0.076635
-11.975583,0.083737
-12.991853,0.090881
-13.980665,0.097885
-14.996989,0.105090
-15.985749,0.112049
-16.974613,0.119057
-17.990831,0.126304
-18.979698,0.133306
-19.995966,0.140532
-20.984779,0.147446
-21.973593,0.154482
-22.989862,0.161631
-23.978676,0.168681
-24.994999,0.175891
-25.983759,0.182847
-27.000082,0.190077
-27.988842,0.197121
-28.977654,0.204116
-29.993923,0.211293
-30.982737,0.218252
-31.999060,0.225530
-32.987873,0.232502
-33.976685,0.239520
-34.992954,0.246664
-35.981770,0.253734
-36.998093,0.260919
-37.986855,0.267906
-38.975719,0.274943
-39.991932,0.282104
-40.980801,0.289102
-41.997017,0.296329
-42.985882,0.303343
-43.974697,0.310362
-44.990967,0.317560
-45.979778,0.324614
-46.996048,0.331820
-47.984913,0.338647
-48.973728,0.345748
-49.989998,0.353070
-50.978813,0.359970
-51.995083,0.367284
-52.983894,0.374143
-54.000217,0.381382
-54.989029,0.388457
-55.977844,0.395382
-56.994110,0.402628
-57.982929,0.409748
-58.999199,0.416888
-59.988010,0.423856
-60.976871,0.430898
-61.993145,0.438136
-62.981956,0.445095
-63.998226,0.452325
-64.987038,0.459323
-65.975906,0.466354
-66.992180,0.473582
-67.980995,0.480729
-68.997253,0.487952
-69.986069,0.494832
-70.974884,0.501795
-71.991211,0.509063
-72.980019,0.516157
-73.996292,0.523306
-74.985161,0.530298
-75.973915,0.537336
-76.990234,0.544577
-77.979050,0.551660
-78.995323,0.558867
-79.984192,0.565850
-81.000404,0.573062
-81.989273,0.580123
-82.978142,0.587067
-83.994354,0.594386
-84.983215,0.601388
-85.999489,0.608686
-86.988304,0.615686
-87.977112,0.622661
-88.993439,0.629892
-89.982254,0.636945
-90.998520,0.644136
-91.987381,0.651131
-92.976151,0.658194
-93.992470,0.665477
-94.981339,0.672478
-95.997551,0.679705
-96.986420,0.686730
-97.975182,0.693801
-98.991501,0.701039
-99.980316,0.708100
-100.996635,0.715306
-101.985451,0.722404
-103.001717,0.729605
-103.990585,0.736598
-104.979347,0.743692
-105.995674,0.750898
-106.984535,0.757942
-108.000801,0.765185
-108.989616,0.772210
-109.978432,0.779237
-110.994759,0.786459
-111.983620,0.793572
-112.999840,0.800792
-113.988701,0.807834
-114.977516,0.814923
-115.993790,0.822136
-116.982597,0.829144
-117.998917,0.836451
-118.987793,0.843490
-119.976540,0.850542
-120.992874,0.857791
-121.981682,0.864811
-122.998009,0.872152
-123.986816,0.879136
-124.975624,0.886202
-125.991959,0.893448
-126.980713,0.900518
-127.997040,0.907766
-128.985855,0.914761
-130.002182,0.922127
-130.991043,0.929116
-131.979797,0.936300
-132.996124,0.943550
-133.984924,0.950449
-135.001266,0.958008
-135.990128,0.964910
-136.978897,0.971970
-137.995209,0.979307
-138.984009,0.986265
-140.000351,0.993547
-140.989212,1.000682
-141.977966,1.007719
-142.994293,1.015050
-143.983093,1.022050
-144.999435,1.029389
-145.988190,1.036474
-146.977051,1.043569
-147.993378,1.050882
-148.982193,1.057817
-149.998520,1.065229
-150.987274,1.072163
-151.976135,1.079433
-152.992462,1.086659
-153.981277,1.093781
-154.997604,1.101130
-155.986404,1.108131
-157.002731,1.115492
-157.991592,1.122542
-158.980362,1.129625
-159.996674,1.136913
-160.985504,1.144026
-162.001816,1.151338
-162.990631,1.158438
-163.979446,1.165574
-164.995819,1.172914
-165.984589,1.180041
-167.000900,1.187244
-167.989716,1.194401
-168.978577,1.201507
-169.994904,1.208824
-170.983719,1.215946
-172.000046,1.223256
-172.988800,1.230475
-173.977661,1.237475
-174.993927,1.244887
-175.982803,1.251936
-176.999130,1.259301
-177.987946,1.266359
-178.976807,1.273628
-179.993011,1.280836
-180.981888,1.287996
-181.998260,1.295377
-182.987030,1.302416
-184.003342,1.309855
-184.992157,1.316903
-185.981033,1.324122
-186.997345,1.331488
-187.986160,1.338558
-189.002487,1.345905
-189.991287,1.352978
-190.980164,1.360223
-191.996368,1.367461
-192.985306,1.374704
-194.001617,1.381981
-194.990387,1.389128
-195.979248,1.396330
-196.995514,1.403572
-197.984390,1.410824
-199.000702,1.418119
-199.989532,1.425345
-200.978394,1.432473
-201.994644,1.439837
-202.983521,1.446987
-203.999786,1.454271
-204.988647,1.461531
-206.004990,1.468908
-206.993790,1.476022
-207.982666,1.483283
-208.998932,1.490600
-209.987793,1.497625
-211.004120,1.505140
-211.992920,1.512296
-212.981796,1.519341
-213.998062,1.526770
-214.986923,1.534086
-216.003265,1.541274
-216.992065,1.548545
-217.980942,1.555694
-218.997208,1.563103
-219.986069,1.570161
-221.002350,1.577805
-221.991211,1.584799
-222.980072,1.592005
-223.996338,1.599482
-224.985199,1.606647
-226.001480,1.614043
-226.990341,1.621187
-227.979218,1.628387
-228.995483,1.635693
-229.984344,1.642949
-231.000626,1.650445
-231.989487,1.657625
-233.005737,1.665045
-233.994614,1.672149
-234.983490,1.679479
-235.999741,1.686816
-236.988617,1.694105
-238.004898,1.701419
-238.993744,1.708734
-239.982620,1.715965
-240.998901,1.723404
-241.987823,1.730561
-243.004013,1.737991
-243.992950,1.745107
-244.981827,1.752379
-245.998077,1.759822
-246.986954,1.767030
-248.003220,1.774504
-248.992081,1.781705
-249.980896,1.788846
-250.997223,1.796459
-251.986099,1.803574
-253.002350,1.811167
-253.991226,1.818323
-254.980042,1.825431
-255.996399,1.833086
-256.985291,1.840247
-258.001556,1.847605
-258.990417,1.855035
-260.006683,1.862426
-260.995544,1.869539
-261.984344,1.876970
-263.000671,1.884292
-263.989624,1.891696
-265.005829,1.899040
-265.994751,1.906368
-266.983490,1.913550
-267.999878,1.921095
-268.988739,1.928258
-270.005005,1.935921
