2,BMW Z4 GT3,baseline
Steering Wheel Angle,Yaw Rate
270.022430,1.542765
269.006195,1.535668
268.017395,1.529545
267.001190,1.523931
266.012421,1.519724
265.023651,1.515026
264.007385,1.510187
263.018616,1.505557
262.002350,1.500639
261.013611,1.495781
260.024841,1.490960
259.008575,1.485954
258.019806,1.480981
257.003571,1.475729
256.014801,1.470497
254.998566,1.464950
254.009781,1.459267
253.021011,1.453579
252.004791,1.447693
251.015961,1.442007
249.999741,1.436191
249.010956,1.430491
248.022217,1.424808
247.005966,1.418996
246.017166,1.413325
245.000916,1.407478
244.012177,1.401847
243.023422,1.396190
242.007141,1.390416
241.018341,1.384687
240.002121,1.378782
239.013351,1.372822
238.024597,1.366474
237.008316,1.359751
236.019547,1.353065
235.003296,1.346126
234.014542,1.339161
233.025772,1.333155
232.009491,1.327281
231.020752,1.321492
230.004471,1.315565
229.015686,1.310968
227.999451,1.305986
227.010681,1.301170
226.021896,1.295761
225.005646,1.289917
224.016876,1.284187
223.000626,1.278318
222.011841,1.271623
221.023071,1.265769
220.006836,1.259894
219.018051,1.254467
218.001816,1.248256
217.013016,1.242677
216.024261,1.236943
215.007996,1.231104
214.019226,1.225405
213.002960,1.219369
212.014175,1.213735
211.025421,1.208052
210.009140,1.202204
209.020386,1.196473
208.004135,1.190565
207.015366,1.184883
206.026566,1.178902
205.010300,1.173137
204.021530,1.167588
203.005295,1.161510
202.016510,1.155902
201.000275,1.149906
200.011475,1.144278
199.022705,1.138674
198.006454,1.132823
197.017670,1.127325
196.001419,1.121186
195.012619,1.115304
194.023849,1.109589
193.007599,1.103717
192.018814,1.097977
191.002563,1.092373
190.013794,1.086758
189.024994,1.080833
188.008728,1.074881
187.019974,1.069164
186.003708,1.063292
185.014938,1.057491
184.026154,1.051643
183.009888,1.045874
182.021133,1.040302
181.004852,1.034448
180.016098,1.028870
178.999817,1.022807
178.011047,1.017042
177.022247,1.011403
176.005981,1.005602
175.017227,0.999888
174.000961,0.993969
173.012192,0.988079
172.023392,0.982309
171.007111,0.976510
170.018356,0.970948
169.002075,0.965145
168.013321,0.959365
167.024506,0.953515
166.008270,0.947712
165.019485,0.942136
164.003220,0.936020
163.014450,0.930334
162.025650,0.924631
161.009415,0.918703
160.020615,0.912996
159.004333,0.907318
158.015564,0.901390
157.026764,0.895525
156.010544,0.889635
155.021729,0.883973
154.005478,0.878357
153.016708,0.872686
152.000443,0.866724
151.011673,0.860852
150.022858,0.854974
149.006622,0.849351
148.017822,0.843664
147.001556,0.837695
146.012772,0.831982
145.023972,0.826294
144.007736,0.820288
143.018936,0.814482
142.002655,0.808690
141.013901,0.803026
140.025085,0.797218
139.008850,0.791401
138.020050,0.785684
137.003769,0.779683
136.014999,0.774090
135.026199,0.768576
134.009964,0.762387
133.021164,0.756669
132.004913,0.750757
131.016113,0.745033
130.027283,0.739537
129.011078,0.733643
128.022263,0.727740
127.006020,0.721865
126.017204,0.716243
125.000938,0.710418
124.012169,0.704549
123.023369,0.698843
122.007118,0.692872
121.018311,0.687218
120.002029,0.681563
119.013283,0.675657
118.024460,0.669971
117.008224,0.664136
116.019402,0.658316
115.003166,0.652656
114.014351,0.646657
113.025566,0.641020
112.009323,0.635218
111.020508,0.629696
110.004265,0.623693
109.015457,0.617771
108.026642,0.612156
107.010399,0.606436
106.021584,0.600581
105.005371,0.594524
104.016556,0.588870
103.027771,0.583148
102.011497,0.577332
101.022690,0.571523
100.006439,0.565622
99.017632,0.560045
98.001389,0.554155
97.012573,0.548469
96.023758,0.542669
95.007515,0.536839
94.018700,0.531326
93.002457,0.525379
92.013649,0.519609
91.024887,0.513726
90.008591,0.508042
89.019775,0.502269
88.003563,0.496460
87.014717,0.490583
86.025963,0.485115
85.009674,0.479073
84.020859,0.473360
83.004631,0.467511
82.015800,0.461926
81.027039,0.456004
80.010742,0.450129
79.021935,0.444608
78.005684,0.438788
77.016876,0.433026
76.000633,0.427091
75.011818,0.421240
74.023056,0.415558
73.006760,0.409809
72.017944,0.403867
71.001701,0.398129
70.012894,0.392192
69.024109,0.386665
68.007835,0.380716
67.018997,0.375103
66.002754,0.369230
65.013939,0.363569
64.025177,0.357772
63.008881,0.352000
62.020069,0.346164
61.003826,0.340244
60.015011,0.334688
59.026226,0.328968
58.009926,0.323085
57.021172,0.317446
56.004875,0.311601
55.016060,0.305693
54.027275,0.300049
53.011005,0.294101
52.022217,0.288389
51.005924,0.282688
50.017109,0.277017
49.000866,0.270967
48.012054,0.265179
47.023270,0.259569
46.006969,0.253901
45.018211,0.247966
44.001915,0.242137
43.013073,0.236619
42.024315,0.230908
41.008018,0.224965
40.019230,0.219199
39.002964,0.213274
38.014122,0.207562
37.025364,0.201879
36.009068,0.195981
35.020279,0.190333
34.003983,0.184488
33.015167,0.178901
32.026382,0.173163
31.010088,0.167304
30.021326,0.161502
29.005032,0.155553
28.016247,0.149859
27.027433,0.144322
26.011137,0.138294
25.022348,0.132556
24.006052,0.126693
23.017294,0.121158
22.000998,0.115345
21.012157,0.109422
20.023371,0.103748
19.007101,0.098019
18.018314,0.092335
17.002018,0.086471
16.013233,0.080794
15.024419,0.075028
14.008123,0.068984
13.019336,0.063271
12.003040,0.057505
11.014254,0.051691
10.025441,0.046063
9.009144,0.040300
8.020358,0.035854
7.004062,0.031294
6.015275,0.026989
5.026462,0.022458
4.010166,0.017933
3.021353,0.013630
2.005083,0.009036
1.016323,0.004588
0.000000,0.001489
-0.988760,0.004310
-1.977626,0.008718
-2.993896,0.013214
-3.982709,0.017597
-4.998979,0.022205
-5.987792,0.026551
-6.976604,0.030924
-7.992875,0.035454
-8.981688,0.040105
-9.997957,0.046380
-10.986771,0.052101
-11.975583,0.057791
-12.991853,0.063852
-13.980665,0.069475
-14.996989,0.075175
-15.985749,0.080799
-16.974613,0.086573
-17.990831,0.092539
-18.979698,0.098222
-19.995966,0.104134
-20.984779,0.109810
-21.973593,0.115635
-22.989862,0.121394
-23.978676,0.127146
-24.994999,0.133002
-25.983759,0.138570
-27.000082,0.144537
-27.988842,0.150249
-28.977654,0.155906
-29.993923,0.161825
-30.982737,0.167575
-31.999060,0.173533
-32.987873,0.179076
-33.976685,0.184730
-34.992954,0.190544
-35.981770,0.196426
-36.998093,0.202386
-37.986855,0.208179
-38.975719,0.213787
-39.991932,0.219531
-40.980801,0.225405
-41.997017,0.231196
-42.985882,0.236896
-43.974697,0.242601
-44.990967,0.248349
-45.979778,0.253975
-46.996048,0.260163
-47.984913,0.265899
-48.973728,0.271316
-49.989998,0.277335
-50.978813,0.282907
-51.995083,0.289001
-52.983894,0.294753
-54.000217,0.300508
-54.989029,0.306203
-55.977844,0.311961
-56.994110,0.317827
-57.982929,0.323303
-58.999199,0.329332
-59.988010,0.335054
-60.976871,0.340925
-61.993145,0.346793
-62.981956,0.352332
-63.998226,0.358206
-64.987038,0.363981
-65.975906,0.369737
-66.992180,0.375670
-67.980995,0.381204
-68.997253,0.387097
-69.986069,0.392780
-70.974884,0.398348
-71.991211,0.404411
-72.980019,0.409967
-73.996292,0.415992
-74.985161,0.421613
-75.973915,0.427338
-76.990234,0.433374
-77.979050,0.438882
-78.995323,0.444858
-79.984192,0.450333
-81.000404,0.456551
-81.989273,0.462268
-82.978142,0.467901
-83.994354,0.473557
-84.983215,0.479367
-85.999489,0.485342
-86.988304,0.491106
-87.977112,0.496862
-88.993439,0.502830
-89.982254,0.508334
-90.998520,0.514291
-91.987381,0.519808
-92.976151,0.525763
-93.992470,0.531767
-94.981339,0.537384
-95.997551,0.543275
-96.986420,0.548859
-97.975182,0.554704
-98.991501,0.560445
-99.980316,0.566283
-100.996635,0.572117
-101.985451,0.577754
-103.001717,0.583578
-103.990585,0.589369
-104.979347,0.594978
-105.995674,0.600891
-106.984535,0.606719
-108.000801,0.612637
-108.989616,0.618308
-109.978432,0.624061
-110.994759,0.629957
-111.983620,0.635664
-112.999840,0.641608
-113.988701,0.647258
-114.977516,0.652948
-115.993790,0.658717
-116.982597,0.664579
-117.998917,0.670435
-118.987793,0.676084
-119.976540,0.681611
-120.992874,0.687687
-121.981682,0.693348
-122.998009,0.699286
-123.986816,0.705127
-124.975624,0.710509
-125.991959,0.716689
-126.980713,0.722409
-127.997040,0.728054
-128.985855,0.733985
-130.002182,0.739762
-130.991043,0.745363
-131.979797,0.751311
-132.996124,0.757143
-133.984924,0.762921
-135.001266,0.768693
-135.990128,0.774194
-136.978897,0.780309
-137.995209,0.786115
-138.984009,0.791830
-140.000351,0.797698
-140.989212,0.803470
-141.977966,0.809215
-142.994293,0.815180
-143.983093,0.820777
-144.999435,0.826658
-145.988190,0.832368
-146.977051,0.837823
-147.993378,0.843910
-148.982193,0.849667
-149.998520,0.855646
-150.987274,0.861350
-151.976135,0.867144
-152.992462,0.872962
-153.981277,0.878663
-154.997604,0.884454
-155.986404,0.890110
-157.002731,0.896209
-157.991592,0.901572
-158.980362,0.907560
-159.996674,0.913502
-160.985504,0.919132
-162.001816,0.924979
-162.990631,0.930734
-163.979446,0.936535
-164.995819,0.942452
-165.984589,0.948171
-167.000900,0.954062
-167.989716,0.959642
-168.978577,0.965385
-169.994904,0.971012
-170.983719,0.976998
-172.000046,0.983035
-172.988800,0.988558
-173.977661,0.994418
-174.993927,1.000351
-175.982803,1.006085
-176.999130,1.011834
-177.987946,1.017568
-178.976807,1.023360
-179.993011,1.028997
-180.981888,1.034888
-181.998260,1.040458
-182.987030,1.046417
-184.003342,1.052240
-184.992157,1.057874
-185.981033,1.063854
-186.997345,1.069665
-187.986160,1.075194
-189.002487,1.081213
-189.991287,1.086818
-190.980164,1.092802
-191.996368,1.098632
-192.985306,1.104243
-194.001617,1.110197
-194.990387,1.115932
-195.979248,1.121341
-196.995514,1.127211
-197.984390,1.133168
-199.000702,1.139089
-199.989532,1.144462
-200.978394,1.150503
-201.994644,1.156227
-202.983521,1.162157
-203.999786,1.167977
-204.988647,1.173408
-206.004990,1.179645
-206.993790,1.185327
-207.982666,1.190981
-208.998932,1.196713
-209.987793,1.202733
-211.004120,1.208573
-211.992920,1.213832
-212.981796,1.219893
-213.998062,1.225432
-214.986923,1.231341
-216.003265,1.237289
-216.992065,1.243145
-217.980942,1.248656
-218.997208,1.254716
-219.986069,1.260322
-221.002350,1.266225
-221.991211,1.271754
-222.980072,1.277464
-223.996338,1.283437
-224.985199,1.289407
-226.001480,1.295019
-226.990341,1.300697
-227.979218,1.306637
-228.995483,1.312508
-229.984344,1.318164
-231.000626,1.324124
-231.989487,1.329976
-233.005737,1.335698
-233.994614,1.341095
-234.983490,1.347096
-235.999741,1.352925
-236.988617,1.358814
-238.004898,1.364602
-238.993744,1.370540
-239.982620,1.376291
-240.998901,1.382208
-241.987823,1.387867
-243.004013,1.393400
-243.992950,1.399496
-244.981827,1.405265
-245.998077,1.411098
-246.986954,1.416654
-248.003220,1.422510
-248.992081,1.428177
-249.980896,1.434227
-250.997223,1.439668
-251.986099,1.445533
-253.002350,1.451652
-253.991226,1.457402
-254.980042,1.462969
-255.996399,1.469001
-256.985291,1.474802
-258.001556,1.480458
-258.990417,1.486202
-260.006683,1.492129
-260.995544,1.498117
-261.984344,1.503885
-263.000671,1.509670
-263.989624,1.515151
-265.005829,1.521068
-265.994751,1.526928
-266.983490,1.532664
-267.999878,1.538353
-268.988739,1.544040
-270.005005,1.549799
