2,BMW M4 GT3 EVO,baseline
Steering Wheel Angle,Yaw Rate
196.001419,1.364371
195.012619,1.357805
194.023849,1.350953
193.007599,1.344388
192.018814,1.338081
191.002563,1.331534
190.013794,1.325069
189.024994,1.318636
188.008728,1.312026
187.019974,1.305588
186.003708,1.298767
185.014938,1.292394
184.026154,1.285794
183.009888,1.278905
182.021133,1.272268
181.004852,1.265248
180.016098,1.258388
178.999817,1.251165
178.011047,1.244216
177.022247,1.237228
176.005981,1.230115
175.017227,1.223147
174.000961,1.215915
173.012192,1.208944
172.023392,1.201957
171.007111,1.194756
170.018356,1.187809
169.002075,1.180654
168.013321,1.173676
167.024506,1.166742
166.008270,1.159587
165.019485,1.152621
164.003220,1.145394
163.014450,1.138467
162.025650,1.131490
161.009415,1.124166
160.020615,1.116912
159.004333,1.109285
158.015564,1.101884
157.026764,1.094373
156.010544,1.086775
155.021729,1.079852
154.005478,1.072716
153.016708,1.065784
152.000443,1.059052
151.011673,1.052684
150.022858,1.046079
149.006622,1.038896
148.017822,1.031956
147.001556,1.024816
146.012772,1.017395
145.023972,1.010453
144.007736,1.003488
143.018936,0.996295
142.002655,0.989279
141.013901,0.982302
140.025085,0.975272
139.008850,0.968133
138.020050,0.961084
137.003769,0.954063
136.014999,0.947128
135.026199,0.940158
134.009964,0.932967
133.021164,0.926041
132.004913,0.918998
131.016113,0.912059
130.027283,0.905055
129.011078,0.897943
128.022263,0.890940
127.006020,0.883909
126.017204,0.876895
125.000938,0.869811
124.012169,0.862806
123.023369,0.855935
122.007118,0.848759
121.018311,0.841845
120.002029,0.834733
119.013283,0.827843
118.024460,0.820853
117.008224,0.813781
116.019402,0.806783
115.003166,0.799692
114.014351,0.792697
113.025566,0.785781
112.009323,0.778644
111.020508,0.771789
110.004265,0.764560
109.015457,0.757675
108.026642,0.750772
107.010399,0.743698
106.021584,0.736895
105.005371,0.729653
104.016556,0.722683
103.027771,0.715733
102.011497,0.708619
101.022690,0.701690
100.006439,0.694766
99.017632,0.687657
98.001389,0.680591
97.012573,0.673644
96.023758,0.666769
95.007515,0.659549
94.018700,0.652630
93.002457,0.645536
92.013649,0.638617
91.024887,0.631763
90.008591,0.624606
89.019775,0.617671
88.003563,0.610669
87.014717,0.603612
86.025963,0.596719
85.009674,0.589617
84.020859,0.582678
83.004631,0.575549
82.015800,0.568681
81.027039,0.561800
80.010742,0.554689
79.021935,0.547754
78.005684,0.540720
77.016876,0.533848
76.000633,0.526609
75.011818,0.519738
74.023056,0.512853
73.006760,0.505676
72.017944,0.498733
71.001701,0.491782
70.012894,0.484711
69.024109,0.477860
68.007835,0.470753
67.018997,0.463868
66.002754,0.456800
65.013939,0.449890
64.025177,0.442981
63.008881,0.435970
62.020069,0.428926
61.003826,0.421770
60.015011,0.414972
59.026226,0.408003
58.009926,0.400995
57.021172,0.394017
56.004875,0.386915
55.016060,0.380045
54.027275,0.373135
53.011005,0.365949
52.022217,0.359052
51.005924,0.352032
50.017109,0.345060
49.000866,0.338038
48.012054,0.331115
47.023270,0.324272
46.006969,0.317020
45.018211,0.310161
44.001915,0.303086
43.013073,0.296197
42.024315,0.289375
41.008018,0.282149
40.019230,0.275204
39.002964,0.268316
38.014122,0.261344
37.025364,0.254358
36.009068,0.247227
35.020279,0.240364
34.003983,0.233306
33.015167,0.226355
32.026382,0.219465
31.010088,0.212389
30.021326,0.205433
29.005032,0.198464
28.016247,0.191573
27.027433,0.184503
26.011137,0.177529
25.022348,0.170575
24.006052,0.163516
23.017294,0.156499
22.000998,0.149495
21.012157,0.142647
20.023371,0.135707
19.007101,0.128595
18.018314,0.121662
17.002018,0.114696
16.013233,0.107661
15.024419,0.100792
14.008123,0.093657
13.019336,0.086819
12.003040,0.079661
11.014254,0.072762
10.025441,0.066003
9.009144,0.058715
8.020358,0.051951
7.004062,0.044826
6.015275,0.038001
5.026462,0.030936
4.010166,0.024024
3.021353,0.018013
2.005083,0.011997
1.016323,0.006088
0.000000,0.001497
-0.988760,0.005877
-1.977626,0.011783
-2.993896,0.017893
-3.982709,0.023788
-4.998979,0.030548
-5.987792,0.037598
-6.976604,0.044347
-7.992875,0.051555
-8.981688,0.058475
-9.997957,0.065416
-10.986771,0.072440
-11.975583,0.079458
-12.991853,0.086284
-13.980665,0.093278
-14.996989,0.100385
-15.985749,0.107220
-16.974613,0.114267
-17.990831,0.121368
-18.979698,0.128220
-19.995966,0.135346
-20.984779,0.142175
-21.973593,0.149089
-22.989862,0.156184
-23.978676,0.163023
-24.994999,0.170096
-25.983759,0.177174
-27.000082,0.184082
-27.988842,0.191149
-28.977654,0.198035
-29.993923,0.205117
-30.982737,0.212031
-31.999060,0.219153
-32.987873,0.226047
-33.976685,0.232958
-34.992954,0.239898
-35.981770,0.246962
-36.998093,0.254074
-37.986855,0.260946
-38.975719,0.267883
-39.991932,0.274879
-40.980801,0.281868
-41.997017,0.288889
-42.985882,0.295860
-43.974697,0.302621
-44.990967,0.309914
-45.979778,0.316752
-46.996048,0.323848
-47.984913,0.330777
-48.973728,0.337713
-49.989998,0.344849
-50.978813,0.351716
-51.995083,0.358836
-52.983894,0.365658
-54.000217,0.372802
-54.989029,0.379716
-55.977844,0.386564
-56.994110,0.393724
-57.982929,0.400741
-58.999199,0.407751
-59.988010,0.414743
-60.976871,0.421647
-61.993145,0.428587
-62.981956,0.435560
-63.998226,0.442638
-64.987038,0.449583
-65.975906,0.456538
-66.992180,0.463521
-67.980995,0.470538
-68.997253,0.477569
-69.986069,0.484523
-70.974884,0.491444
-71.991211,0.498550
-72.980019,0.505527
-73.996292,0.512480
-74.985161,0.519495
-75.973915,0.526484
-76.990234,0.533445
-77.979050,0.540483
-78.995323,0.547492
-79.984192,0.554496
-81.000404,0.561495
-81.989273,0.568443
-82.978142,0.575357
-83.994354,0.582490
-84.983215,0.589381
-85.999489,0.596510
-86.988304,0.603352
-87.977112,0.610387
-88.993439,0.617449
-89.982254,0.624331
-90.998520,0.631376
-91.987381,0.638436
-92.976151,0.645200
-93.992470,0.652338
-94.981339,0.659387
-95.997551,0.666392
-96.986420,0.673344
-97.975182,0.680181
-98.991501,0.687397
-99.980316,0.694299
-100.996635,0.701434
-101.985451,0.708360
-103.001717,0.715396
-103.990585,0.722419
-104.979347,0.729337
-105.995674,0.736413
-106.984535,0.743290
-108.000801,0.750508
-108.989616,0.757418
-109.978432,0.764322
-110.994759,0.771464
-111.983620,0.778367
-112.999840,0.785523
-113.988701,0.792399
-114.977516,0.799384
-115.993790,0.806355
-116.982597,0.813441
-117.998917,0.820505
-118.987793,0.827594
-119.976540,0.834375
-120.992874,0.841555
-121.981682,0.848274
-122.998009,0.855657
-123.986816,0.862628
-124.975624,0.869597
-125.991959,0.876476
-126.980713,0.883556
-127.997040,0.890664
-128.985855,0.897699
-130.002182,0.904744
-130.991043,0.911700
-131.979797,0.918681
-132.996124,0.925854
-133.984924,0.932815
-135.001266,0.939883
-135.990128,0.946848
-136.978897,0.953786
-137.995209,0.960801
-138.984009,0.967862
-140.000351,0.975042
-140.989212,0.981954
-141.977966,0.988835
-142.994293,0.996064
-143.983093,1.002853
-144.999435,1.010121
-145.988190,1.017122
-146.977051,1.023961
-147.993378,1.031212
-148.982193,1.038191
-149.998520,1.045204
-150.987274,1.052294
-151.976135,1.059280
-152.992462,1.066440
-153.981277,1.073382
-154.997604,1.080457
-155.986404,1.087371
-157.002731,1.094647
-157.991592,1.101359
-158.980362,1.108433
-159.996674,1.115625
-160.985504,1.122648
-162.001816,1.129747
-162.990631,1.136836
-163.979446,1.143749
-164.995819,1.150983
-165.984589,1.157930
-167.000900,1.165110
-167.989716,1.171977
-168.978577,1.179003
-169.994904,1.186150
-170.983719,1.193165
-172.000046,1.200233
-172.988800,1.207153
-173.977661,1.214252
-174.993927,1.221437
-175.982803,1.228393
-176.999130,1.235553
-177.987946,1.242531
-178.976807,1.249644
-179.993011,1.256622
-180.981888,1.263801
-181.998260,1.270907
-182.987030,1.277681
-184.003342,1.285019
-184.992157,1.291788
-185.981033,1.298956
-186.997345,1.306012
-187.986160,1.313049
-189.002487,1.320350
-189.991287,1.327161
-190.980164,1.334320
-191.996368,1.341403
-192.985306,1.348467
-194.001617,1.355665
-194.990387,1.362606
-195.979248,1.369752
