2,Corvette C7 Daytona Prototype,baseline
Steering Wheel Angle,Yaw Rate
263.018616,2.146312
262.002350,2.132187
261.013611,2.124427
260.024841,2.119515
259.008575,2.113811
258.019806,2.108132
257.003571,2.101943
256.014801,2.095769
254.998566,2.088304
254.009781,2.080020
253.021011,2.071991
252.004791,2.063639
251.015961,2.054044
249.999741,2.043353
249.010956,2.032552
248.022217,2.024858
247.005966,2.016412
246.017166,2.009977
245.000916,2.001828
244.012177,1.992833
243.023422,1.985202
242.007141,1.976243
241.018341,1.967813
240.002121,1.959305
239.013351,1.950899
238.024597,1.943128
237.008316,1.934587
236.019547,1.926554
235.003296,1.918330
234.014542,1.910000
233.025772,1.901451
232.009491,1.893283
231.020752,1.884847
230.004471,1.876445
229.015686,1.868549
227.999451,1.860318
227.010681,1.852053
226.021896,1.844117
225.005646,1.835450
224.016876,1.827055
223.000626,1.819171
222.011841,1.810603
221.023071,1.802845
220.006836,1.793933
219.018051,1.785945
218.001816,1.777835
217.013016,1.769712
216.024261,1.761525
215.007996,1.752707
214.019226,1.744580
213.002960,1.736817
212.014175,1.728874
211.025421,1.720044
210.009140,1.711485
209.020386,1.703461
208.004135,1.694996
207.015366,1.687114
206.026566,1.678664
205.010300,1.670820
204.021530,1.662458
203.005295,1.654249
202.016510,1.645772
201.000275,1.637587
200.011475,1.629155
199.022705,1.620976
198.006454,1.612528
197.017670,1.604562
196.001419,1.596704
195.012619,1.588938
194.023849,1.580069
193.007599,1.571732
192.018814,1.563525
191.002563,1.555300
190.013794,1.547087
189.024994,1.539562
188.008728,1.531159
187.019974,1.522914
186.003708,1.514725
185.014938,1.506052
184.026154,1.498414
183.009888,1.489563
182.021133,1.481406
181.004852,1.472938
180.016098,1.464566
178.999817,1.456502
178.011047,1.448031
177.022247,1.440115
176.005981,1.432205
175.017227,1.424260
174.000961,1.415748
173.012192,1.407651
172.023392,1.398899
171.007111,1.390671
170.018356,1.383346
169.002075,1.374832
168.013321,1.366479
167.024506,1.357862
166.008270,1.349638
165.019485,1.342125
164.003220,1.333802
163.014450,1.325515
162.025650,1.317023
161.009415,1.309044
160.020615,1.300516
159.004333,1.292421
158.015564,1.284750
157.026764,1.276127
156.010544,1.267826
155.021729,1.259992
154.005478,1.251381
153.016708,1.243148
152.000443,1.234812
151.011673,1.226881
150.022858,1.218973
149.006622,1.210241
148.017822,1.202434
147.001556,1.193780
146.012772,1.185681
145.023972,1.178051
144.007736,1.169782
143.018936,1.161465
142.002655,1.153073
141.013901,1.145058
140.025085,1.137068
139.008850,1.128788
138.020050,1.120799
137.003769,1.112563
136.014999,1.104572
135.026199,1.096435
134.009964,1.087960
133.021164,1.079509
132.004913,1.071121
131.016113,1.063093
130.027283,1.055266
129.011078,1.046751
128.022263,1.038830
127.006020,1.030425
126.017204,1.022444
125.000938,1.014274
124.012169,1.006172
123.023369,0.998075
122.007118,0.990070
121.018311,0.981941
120.002029,0.973350
119.013283,0.965040
118.024460,0.957115
117.008224,0.948481
116.019402,0.940650
115.003166,0.932749
114.014351,0.924512
113.025566,0.916159
112.009323,0.907945
111.020508,0.900010
110.004265,0.891847
109.015457,0.883600
108.026642,0.875603
107.010399,0.867218
106.021584,0.859283
105.005371,0.850997
104.016556,0.842784
103.027771,0.834429
102.011497,0.826031
101.022690,0.818307
100.006439,0.809995
99.017632,0.801752
98.001389,0.793455
97.012573,0.785345
96.023758,0.777531
95.007515,0.768841
94.018700,0.761107
93.002457,0.752597
92.013649,0.744574
91.024887,0.736485
90.008591,0.728556
89.019775,0.720252
88.003563,0.711932
87.014717,0.703702
86.025963,0.695928
85.009674,0.687330
84.020859,0.679147
83.004631,0.671305
82.015800,0.663104
81.027039,0.655234
80.010742,0.646425
79.021935,0.638301
78.005684,0.630269
77.016876,0.621961
76.000633,0.613681
75.011818,0.605560
74.023056,0.597592
73.006760,0.589366
72.017944,0.581174
71.001701,0.572780
70.012894,0.564813
69.024109,0.557047
68.007835,0.548481
67.018997,0.540259
66.002754,0.531914
65.013939,0.524117
64.025177,0.516101
63.008881,0.507683
62.020069,0.499517
61.003826,0.491310
60.015011,0.483496
59.026226,0.475461
58.009926,0.466987
57.021172,0.458769
56.004875,0.450389
55.016060,0.442311
54.027275,0.434244
53.011005,0.425963
52.022217,0.418261
51.005924,0.409828
50.017109,0.401710
49.000866,0.393184
48.012054,0.385350
47.023270,0.377068
46.006969,0.369173
45.018211,0.361149
44.001915,0.352593
43.013073,0.344558
42.024315,0.336473
41.008018,0.328002
40.019230,0.320071
39.002964,0.311801
38.014122,0.303571
37.025364,0.295590
36.009068,0.287345
35.020279,0.279358
34.003983,0.270949
33.015167,0.262979
32.026382,0.255045
31.010088,0.246772
30.021326,0.238554
29.005032,0.230169
28.016247,0.221968
27.027433,0.214241
26.011137,0.206034
25.022348,0.198125
24.006052,0.189714
23.017294,0.181465
22.000998,0.173207
21.012157,0.165216
20.023371,0.157116
19.007101,0.148711
18.018314,0.140837
17.002018,0.132504
16.013233,0.124303
15.024419,0.116319
14.008123,0.107952
13.019336,0.099921
12.003040,0.091712
11.014254,0.083701
10.025441,0.075505
9.009144,0.067376
8.020358,0.059318
7.004062,0.050999
6.015275,0.042998
5.026462,0.034713
4.010166,0.026474
3.021353,0.018379
2.005083,0.012331
1.016323,0.006524
0.000000,0.001689
-0.988760,0.005210
-1.977626,0.011001
-2.993896,0.018034
-3.982709,0.025997
-4.998979,0.034254
-5.987792,0.042433
-6.976604,0.050830
-7.992875,0.059071
-8.981688,0.066947
-9.997957,0.075201
-10.986771,0.083110
-11.975583,0.091463
-12.991853,0.099521
-13.980665,0.107834
-14.996989,0.116256
-15.985749,0.124212
-16.974613,0.131975
-17.990831,0.140231
-18.979698,0.148197
-19.995966,0.156592
-20.984779,0.164635
-21.973593,0.173117
-22.989862,0.181225
-23.978676,0.189136
-24.994999,0.197686
-25.983759,0.205685
-27.000082,0.214191
-27.988842,0.221826
-28.977654,0.230168
-29.993923,0.238398
-30.982737,0.246480
-31.999060,0.254676
-32.987873,0.262678
-33.976685,0.270942
-34.992954,0.279298
-35.981770,0.287375
-36.998093,0.295491
-37.986855,0.303704
-38.975719,0.311430
-39.991932,0.319688
-40.980801,0.328038
-41.997017,0.336265
-42.985882,0.344520
-43.974697,0.352615
-44.990967,0.360882
-45.979778,0.368758
-46.996048,0.377193
-47.984913,0.385217
-48.973728,0.393386
-49.989998,0.401775
-50.978813,0.409788
-51.995083,0.418049
-52.983894,0.426228
-54.000217,0.434410
-54.989029,0.442056
-55.977844,0.450481
-56.994110,0.458887
-57.982929,0.467044
-58.999199,0.475263
-59.988010,0.483121
-60.976871,0.491337
-61.993145,0.499709
-62.981956,0.507938
-63.998226,0.515740
-64.987038,0.523774
-65.975906,0.532100
-66.992180,0.540354
-67.980995,0.548462
-68.997253,0.556555
-69.986069,0.565026
-70.974884,0.573182
-71.991211,0.581478
-72.980019,0.589195
-73.996292,0.597619
-74.985161,0.605703
-75.973915,0.613479
-76.990234,0.622129
-77.979050,0.630196
-78.995323,0.638601
-79.984192,0.646669
-81.000404,0.654875
-81.989273,0.663037
-82.978142,0.671151
-83.994354,0.679489
-84.983215,0.687455
-85.999489,0.695944
-86.988304,0.703989
-87.977112,0.711850
-88.993439,0.720292
-89.982254,0.728042
-90.998520,0.736782
-91.987381,0.744754
-92.976151,0.752867
-93.992470,0.760986
-94.981339,0.769089
-95.997551,0.777500
-96.986420,0.785621
-97.975182,0.793747
-98.991501,0.801647
-99.980316,0.809764
-100.996635,0.818167
-101.985451,0.825910
-103.001717,0.834400
-103.990585,0.842727
-104.979347,0.850776
-105.995674,0.859109
-106.984535,0.867232
-108.000801,0.875527
-108.989616,0.883106
-109.978432,0.891317
-110.994759,0.899725
-111.983620,0.908202
-112.999840,0.916283
-113.988701,0.924034
-114.977516,0.932468
-115.993790,0.940783
-116.982597,0.948891
-117.998917,0.957125
-118.987793,0.965220
-119.976540,0.973409
-120.992874,0.981378
-121.981682,0.989640
-122.998009,0.997911
-123.986816,1.005936
-124.975624,1.014317
-125.991959,1.022540
-126.980713,1.030713
-127.997040,1.038670
-128.985855,1.046667
-130.002182,1.055298
-130.991043,1.063495
-131.979797,1.071598
-132.996124,1.080043
-133.984924,1.087951
-135.001266,1.096164
-135.990128,1.104407
-136.978897,1.112408
-137.995209,1.120891
-138.984009,1.129063
-140.000351,1.136996
-140.989212,1.144582
-141.977966,1.153333
-142.994293,1.161644
-143.983093,1.169750
-144.999435,1.178149
-145.988190,1.185886
-146.977051,1.194291
-147.993378,1.202808
-148.982193,1.210618
-149.998520,1.218622
-150.987274,1.227012
-151.976135,1.235346
-152.992462,1.243396
-153.981277,1.251810
-154.997604,1.260045
-155.986404,1.267633
-157.002731,1.276128
-157.991592,1.284737
-158.980362,1.292660
-159.996674,1.300545
-160.985504,1.309097
-162.001816,1.317662
-162.990631,1.325793
-163.979446,1.333994
-164.995819,1.342112
-165.984589,1.350317
-167.000900,1.358146
-167.989716,1.366874
-168.978577,1.374914
-169.994904,1.382958
-170.983719,1.391221
-172.000046,1.399519
-172.988800,1.407500
-173.977661,1.415837
-174.993927,1.424335
-175.982803,1.432544
-176.999130,1.440392
-177.987946,1.448720
-178.976807,1.457108
-179.993011,1.465282
-180.981888,1.473451
-181.998260,1.481395
-182.987030,1.489388
-184.003342,1.497815
-184.992157,1.506647
-185.981033,1.514573
-186.997345,1.522245
-187.986160,1.530538
-189.002487,1.539416
-189.991287,1.547258
-190.980164,1.555176
-191.996368,1.563541
-192.985306,1.571767
-194.001617,1.580031
-194.990387,1.588643
-195.979248,1.597022
-196.995514,1.605459
-197.984390,1.613665
-199.000702,1.621761
-199.989532,1.630170
-200.978394,1.637953
-201.994644,1.646263
-202.983521,1.654346
-203.999786,1.662651
-204.988647,1.671275
-206.004990,1.679542
-206.993790,1.687354
-207.982666,1.695844
-208.998932,1.704272
-209.987793,1.711995
-211.004120,1.720686
-211.992920,1.728375
-212.981796,1.736873
-213.998062,1.745166
-214.986923,1.753751
-216.003265,1.761274
-216.992065,1.769966
-217.980942,1.777765
-218.997208,1.786367
-219.986069,1.795020
-221.002350,1.803122
-221.991211,1.811342
-222.980072,1.820003
-223.996338,1.828341
-224.985199,1.836153
-226.001480,1.844247
-226.990341,1.853145
-227.979218,1.861239
-228.995483,1.869127
-229.984344,1.877630
-231.000626,1.885894
-231.989487,1.893787
-233.005737,1.902497
-233.994614,1.910976
-234.983490,1.919015
-235.999741,1.927205
-236.988617,1.935570
-238.004898,1.944163
-238.993744,1.951449
-239.982620,1.960009
-240.998901,1.968110
-241.987823,1.976427
-243.004013,1.985307
-243.992950,1.993391
-244.981827,2.001359
-245.998077,2.009532
-246.986954,2.017585
-248.003220,2.026783
-248.992081,2.035189
-249.980896,2.042597
-250.997223,2.050828
-251.986099,2.059759
-253.002350,2.068293
-253.991226,2.076355
-254.980042,2.084681
-255.996399,2.092836
-256.985291,2.101361
-258.001556,2.109741
-258.990417,2.117772
-260.006683,2.125275
-260.995544,2.133912
-261.984344,2.142795
-263.000671,2.151263
