2,Dallara IL15 Indy NXT,baseline
Steering Wheel Angle,Yaw Rate
291.943726,1.940637
290.911652,1.941002
289.912903,1.941551
288.914154,1.940564
287.882080,1.934181
286.883301,1.928248
285.884552,1.922254
284.852478,1.915742
283.853729,1.909545
282.854980,1.903403
281.822876,1.896953
280.824127,1.890739
279.825317,1.884485
278.793304,1.878001
277.794556,1.871703
276.795776,1.865404
275.763702,1.858681
274.764984,1.852199
273.766174,1.845238
272.734131,1.837950
271.735382,1.830923
270.736603,1.823906
269.704529,1.816169
268.705780,1.808449
267.707001,1.800490
266.674927,1.792124
265.676178,1.783857
264.677399,1.775565
263.645355,1.766786
262.646576,1.758519
261.647827,1.749988
260.615753,1.742597
259.617004,1.735538
258.584900,1.728233
257.586182,1.721187
256.587372,1.715406
255.555344,1.709159
254.556549,1.703273
253.557785,1.697193
252.525742,1.690935
251.526947,1.684551
250.528183,1.677527
249.496140,1.670230
248.497330,1.663208
247.498581,1.655452
246.466522,1.647186
245.467773,1.639531
244.468964,1.632601
243.436951,1.625340
242.438156,1.619197
241.439392,1.612264
240.407318,1.604536
239.408585,1.597760
238.409760,1.590560
237.377716,1.583456
236.378922,1.576429
235.380157,1.569567
234.348114,1.562309
233.349335,1.555561
232.350586,1.548330
231.318527,1.541428
230.319733,1.534371
229.320969,1.527394
228.288895,1.520264
227.290115,1.513425
226.291382,1.506347
225.259277,1.499191
224.260529,1.492069
223.261749,1.485592
222.229706,1.478202
221.230927,1.471443
220.232147,1.464478
219.200073,1.457479
218.201324,1.450613
217.202515,1.443409
216.170486,1.436352
215.171677,1.429508
214.172928,1.422809
213.140839,1.415641
212.142090,1.408604
211.143280,1.401913
210.111252,1.394505
209.112442,1.388084
208.113693,1.380787
207.081604,1.374061
206.082840,1.367132
205.050766,1.360003
204.052017,1.353094
203.053238,1.346281
202.021164,1.339089
201.022385,1.332607
200.023605,1.325541
198.991516,1.318364
197.992783,1.311678
196.994003,1.304783
195.961929,1.297771
194.963150,1.291007
193.964371,1.283975
192.932281,1.276973
191.933533,1.270262
190.934753,1.263419
189.902695,1.256429
188.903946,1.249571
187.905136,1.242833
186.873108,1.235699
185.874298,1.229002
184.875549,1.221984
183.843445,1.215186
182.844696,1.208374
181.845901,1.201655
180.813843,1.194539
179.815063,1.187836
178.816269,1.181006
177.784180,1.174040
176.785431,1.167169
175.786636,1.160387
174.754608,1.153513
173.755783,1.146762
172.757034,1.139906
171.724945,1.132841
170.726196,1.126214
169.727371,1.119530
168.695328,1.112493
167.696548,1.105633
166.697769,1.099125
165.665665,1.091857
164.666916,1.085344
163.668106,1.078512
162.636078,1.071460
161.637283,1.064992
160.638535,1.058208
159.606430,1.051142
158.607651,1.044319
157.608841,1.037747
156.576813,1.030799
155.578003,1.024020
154.545944,1.017018
153.547165,1.010380
152.548386,1.003654
151.516296,0.996860
150.517532,0.990031
149.518738,0.983333
148.486664,0.976446
147.487885,0.969669
146.489105,0.962946
145.457016,0.956154
144.458267,0.949323
143.459503,0.942709
142.427399,0.935728
141.428650,0.929011
140.429840,0.922385
139.397781,0.915551
138.399002,0.908995
137.400223,0.902040
136.368118,0.895249
135.369385,0.888609
134.370560,0.881900
133.338501,0.875008
132.339691,0.868408
131.340958,0.861600
130.308853,0.854786
129.310074,0.848162
128.311264,0.841362
127.279228,0.834543
126.280426,0.828041
125.281647,0.821195
124.249550,0.814391
123.250801,0.807602
122.251991,0.801055
121.219940,0.794086
120.221115,0.787372
119.222366,0.780858
118.190239,0.773997
117.191505,0.767383
116.192688,0.760691
115.160629,0.753949
114.161819,0.747170
113.163063,0.740584
112.130974,0.733701
111.132202,0.726980
110.133385,0.720591
109.101326,0.713472
108.102509,0.706808
107.103767,0.700340
106.071671,0.693626
105.072891,0.686996
104.074081,0.680167
103.042015,0.673430
102.043213,0.667070
101.011185,0.660037
100.012398,0.653482
99.013596,0.646688
97.981529,0.639923
96.982719,0.633418
95.983971,0.626781
94.951881,0.620073
93.953102,0.613278
92.954285,0.606639
91.922226,0.600018
90.923409,0.593315
89.924667,0.586705
88.892548,0.579814
87.893791,0.573285
86.894981,0.566641
85.862923,0.559996
84.864113,0.553249
83.865334,0.546547
82.833237,0.539763
81.834457,0.533353
80.835648,0.526673
79.803581,0.519714
78.804771,0.513323
77.806030,0.506585
76.773903,0.499861
75.775154,0.493212
74.776337,0.486737
73.744286,0.479920
72.745476,0.473319
71.746696,0.466895
70.714600,0.459933
69.715820,0.453398
68.717003,0.446661
67.684944,0.439948
66.686142,0.433427
65.687355,0.426766
64.655266,0.419940
63.656487,0.413417
62.657673,0.406728
61.625610,0.399944
60.626797,0.393559
59.628021,0.387036
58.595932,0.380155
57.597145,0.373461
56.598400,0.367078
55.566277,0.360332
54.567528,0.353600
53.568687,0.347138
52.536625,0.340437
51.537811,0.333762
50.505753,0.326973
49.506939,0.320502
48.508160,0.313817
47.476070,0.307169
46.477287,0.300470
45.478477,0.293897
44.446415,0.287159
43.447601,0.280596
42.448826,0.274138
41.416702,0.267341
40.417953,0.260771
39.419140,0.254179
38.387077,0.247438
37.388233,0.240798
36.389488,0.234352
35.357365,0.227554
34.358585,0.220933
33.359772,0.214429
32.327709,0.207686
31.328901,0.200988
30.330120,0.194748
29.297997,0.187951
28.299248,0.181178
27.300406,0.174651
26.268345,0.167939
25.269531,0.161554
24.270754,0.154925
23.238661,0.148131
22.239880,0.141572
21.241070,0.134857
20.209009,0.128171
19.210163,0.121657
18.211416,0.115297
17.179293,0.108319
16.180511,0.101816
15.181702,0.095429
14.149640,0.088519
13.150796,0.082179
12.152049,0.075466
11.119988,0.068796
10.121144,0.062164
9.122396,0.055731
8.090272,0.048914
7.091493,0.042432
6.092681,0.035668
5.060620,0.028864
4.061809,0.022391
3.062997,0.015864
2.030904,0.009846
1.032093,0.004785
0.000000,0.001719
-0.998747,0.005930
-1.997624,0.011270
-3.029652,0.016581
-4.028464,0.022749
-5.027276,0.029261
-6.059368,0.035958
-7.058115,0.042662
-8.056992,0.049145
-9.089020,0.055963
-10.087896,0.062513
-11.086643,0.069004
-12.118735,0.075915
-13.117547,0.082222
-14.116360,0.088836
-15.148452,0.095574
-16.147263,0.102190
-17.146011,0.108665
-18.178169,0.115444
-19.176916,0.122117
-20.175728,0.128325
-21.207819,0.135221
-22.206633,0.141918
-23.205444,0.148397
-24.237535,0.155109
-25.236284,0.161727
-26.235159,0.168324
-27.267187,0.175108
-28.266064,0.181593
-29.264811,0.188110
-30.296968,0.194966
-31.295717,0.201543
-32.294464,0.208067
-33.326618,0.214825
-34.325367,0.221416
-35.324245,0.227951
-36.356274,0.234554
-37.355083,0.241200
-38.353897,0.247686
-39.385986,0.254613
-40.384800,0.261010
-41.383614,0.267759
-42.415703,0.274353
-43.414516,0.281017
-44.413265,0.287603
-45.445419,0.294374
-46.444168,0.301000
-47.443043,0.307354
-48.475071,0.314282
-49.473949,0.320930
-50.472694,0.327386
-51.504852,0.334172
-52.503601,0.340790
-53.535759,0.347424
-54.534504,0.354083
-55.533318,0.360760
-56.565411,0.367504
-57.564224,0.374005
-58.563034,0.380675
-59.595127,0.387269
-60.593937,0.393955
-61.592751,0.400484
-62.624840,0.407411
-63.623653,0.413914
-64.622467,0.420381
-65.654556,0.427216
-66.653366,0.433939
-67.652184,0.440172
-68.684273,0.447137
-69.683090,0.453876
-70.681831,0.460228
-71.713989,0.467244
-72.712738,0.473652
-73.711617,0.480428
-74.743645,0.487139
-75.742516,0.493748
-76.741264,0.500333
-77.773361,0.507127
-78.772171,0.513649
-79.770981,0.520251
-80.803070,0.527207
-81.801888,0.533758
-82.800697,0.540368
-83.832787,0.547114
-84.831604,0.553662
-85.830414,0.560169
-86.862572,0.566912
-87.861313,0.573748
-88.860130,0.580211
-89.892227,0.587024
-90.891098,0.593782
-91.889847,0.600418
-92.921997,0.606917
-93.920753,0.613834
-94.919624,0.620315
-95.951653,0.627171
-96.950531,0.634017
-97.949280,0.640219
-98.981438,0.647272
-99.980179,0.653849
-100.979065,0.660562
-102.011093,0.667444
-103.009964,0.673999
-104.008705,0.680705
-105.040863,0.687576
-106.039619,0.694113
-107.071777,0.700971
-108.070587,0.707490
-109.069389,0.714251
-110.101486,0.720992
-111.100304,0.727691
-112.099113,0.734285
-113.131271,0.741181
-114.130020,0.747657
-115.128899,0.754573
-116.160927,0.761469
-117.159798,0.767982
-118.158554,0.774552
-119.190704,0.781427
-120.189453,0.788218
-121.188255,0.794846
-122.220421,0.801734
-123.219162,0.808172
-124.218033,0.815050
-125.250061,0.821715
-126.248947,0.828495
-127.247688,0.835108
-128.279846,0.842214
-129.278656,0.848683
-130.277481,0.855238
-131.309555,0.862274
-132.308380,0.868869
-133.307190,0.875590
-134.339355,0.882339
-135.338089,0.889147
-136.336975,0.895715
-137.369003,0.902497
-138.367874,0.909516
-139.366684,0.916105
-140.398773,0.923029
-141.397583,0.929660
-142.396408,0.936328
-143.428497,0.943209
-144.427368,0.950075
-145.426117,0.956919
-146.458282,0.963748
-147.457077,0.970256
-148.455902,0.976967
-149.487991,0.984068
-150.486877,0.990754
-151.485611,0.997106
-152.517776,1.004435
-153.516525,1.011015
-154.515396,1.017568
-155.547485,1.024783
-156.546295,1.031485
-157.578400,1.038452
-158.577271,1.045098
-159.576004,1.051764
-160.608170,1.058870
-161.606918,1.065517
-162.605804,1.072290
-163.637894,1.079238
-164.636765,1.086116
-165.635513,1.092679
-166.667603,1.099691
-167.666428,1.106546
-168.665222,1.113080
-169.697372,1.119954
-170.696136,1.126926
-171.695007,1.133751
-172.727097,1.140422
-173.725922,1.147589
-174.724731,1.154078
-175.756882,1.161246
-176.755630,1.167972
-177.754501,1.174781
-178.786606,1.181740
-179.785477,1.188352
-180.784225,1.195497
-181.816376,1.202229
-182.815125,1.209028
-183.813995,1.215827
-184.846100,1.223042
-185.844971,1.229629
-186.843719,1.236279
-187.875870,1.243582
-188.874695,1.250438
-189.873505,1.257267
-190.905594,1.264246
-191.904465,1.270904
-192.903214,1.277678
-193.935364,1.284920
-194.934189,1.291644
-195.933060,1.298561
-196.965088,1.305598
-197.963959,1.312452
-198.962769,1.319171
-199.994934,1.326216
-200.993683,1.333109
-201.992554,1.339756
-203.024643,1.347079
-204.023468,1.353898
-205.022263,1.360756
-206.054428,1.367915
-207.053177,1.374777
-208.085403,1.381774
-209.084137,1.388652
-210.082886,1.395619
-211.115112,1.402469
-212.113861,1.409625
-213.112732,1.416152
-214.144836,1.423487
-215.143646,1.430241
-216.142456,1.436949
-217.174606,1.444417
-218.173355,1.451296
-219.172241,1.458111
-220.204330,1.465247
-221.203201,1.472177
-222.201950,1.479131
-223.234177,1.486140
-224.232925,1.493088
-225.231796,1.499943
-226.263885,1.507283
-227.262772,1.514064
-228.261505,1.521193
-229.293671,1.528194
-230.292496,1.535165
-231.291367,1.541932
-232.323380,1.549268
-233.322250,1.556257
-234.321075,1.563022
-235.353226,1.570422
-236.351990,1.577084
-237.350861,1.584232
-238.382965,1.591408
-239.381836,1.598382
-240.380569,1.605430
-241.412811,1.612614
-242.411545,1.619523
-243.410416,1.626304
-244.442505,1.633453
-245.441391,1.640608
-246.440125,1.647356
-247.472305,1.655083
-248.471100,1.661951
-249.469971,1.668868
-250.502060,1.675945
-251.500946,1.683373
-252.499710,1.690132
-253.531860,1.697492
-254.530670,1.704500
-255.529404,1.711472
-256.561554,1.718874
-257.560394,1.725840
-258.559265,1.732868
-259.591339,1.740119
-260.590240,1.747052
-261.622253,1.754376
-262.621124,1.761435
-263.619934,1.768524
-264.652100,1.775758
-265.650909,1.782584
-266.649780,1.790048
-267.681824,1.797344
-268.680695,1.804198
-269.679504,1.811366
-270.711670,1.818778
-271.710449,1.825788
-272.709351,1.832925
-273.741425,1.840261
-274.740295,1.847402
-275.739075,1.854412
-276.771210,1.861760
-277.770050,1.868621
-278.768921,1.875977
-279.800995,1.883530
-280.799866,1.890184
-281.798615,1.897679
-282.830841,1.904896
-283.829590,1.912168
-284.828461,1.919237
-285.860565,1.926770
-286.859436,1.933840
-287.858246,1.941083
-288.890411,1.948228
-289.889130,1.951116
-290.888000,1.950766
-291.920105,1.950840
