2,Dallara DW-12,baseline
Steering Wheel Angle,Yaw Rate
272.734131,1.970967
271.735382,1.972028
270.736603,1.978267
269.704529,1.973510
268.705780,1.965281
267.707001,1.957035
266.674927,1.946682
265.676178,1.939658
264.677399,1.931964
263.645355,1.924450
262.646576,1.917574
261.647827,1.910629
260.615753,1.903207
259.617004,1.895688
258.584900,1.887791
257.586182,1.880278
256.587372,1.872450
255.555344,1.864683
254.556549,1.857058
253.557785,1.849588
252.525742,1.841904
251.526947,1.834504
250.528183,1.826826
249.496140,1.819067
248.497330,1.811667
247.498581,1.804153
246.466522,1.796423
245.467773,1.788985
244.468964,1.781424
243.436951,1.773773
242.438156,1.766211
241.439392,1.758862
240.407318,1.751054
239.408585,1.743552
238.409760,1.736120
237.377716,1.728384
236.378922,1.720879
235.380157,1.713373
234.348114,1.705780
233.349335,1.698322
232.350586,1.690725
231.318527,1.683223
230.319733,1.675644
229.320969,1.668156
228.288895,1.660569
227.290115,1.652997
226.291382,1.645677
225.259277,1.637771
224.260529,1.630404
223.261749,1.623004
222.229706,1.615128
221.230927,1.607744
220.232147,1.600282
219.200073,1.592553
218.201324,1.585058
217.202515,1.577509
216.170486,1.569741
215.171677,1.560590
214.172928,1.553481
213.140839,1.545997
212.142090,1.538520
211.143280,1.531265
210.111252,1.523337
209.112442,1.516183
208.113693,1.508559
207.081604,1.501025
206.082840,1.493613
205.050766,1.485975
204.052017,1.478629
203.053238,1.471271
202.021164,1.463511
201.022385,1.456309
200.023605,1.448877
198.991516,1.441330
197.992783,1.433884
196.994003,1.426615
195.961929,1.418857
194.963150,1.411601
193.964371,1.404150
192.932281,1.396524
191.933533,1.389334
190.934753,1.381804
189.902695,1.374282
188.903946,1.366892
187.905136,1.359563
186.873108,1.351893
185.874298,1.344619
184.875549,1.337234
183.843445,1.329693
182.844696,1.322343
181.845901,1.315032
180.813843,1.307422
179.815063,1.300043
178.816269,1.292736
177.784180,1.285357
176.785431,1.277749
175.786636,1.270525
174.754608,1.262920
173.755783,1.255644
172.757034,1.248313
171.724945,1.240774
170.726196,1.233421
169.727371,1.226197
168.695328,1.218533
167.696548,1.211207
166.697769,1.203874
165.665665,1.196399
164.666916,1.189170
163.668106,1.181668
162.636078,1.174177
161.637283,1.167019
160.638535,1.159437
159.606430,1.151986
158.607651,1.144731
157.608841,1.137499
156.576813,1.129977
155.578003,1.122689
154.545944,1.115108
153.547165,1.107940
152.548386,1.100362
151.516296,1.092939
150.517532,1.085735
149.518738,1.078259
148.486664,1.070750
147.487885,1.063444
146.489105,1.056210
145.457016,1.048682
144.458267,1.041395
143.459503,1.034038
142.427399,1.026532
141.428650,1.019161
140.429840,1.012152
139.397781,1.004201
138.399002,0.997252
137.400223,0.989688
136.368118,0.982476
135.369385,0.974850
134.370560,0.967668
133.338501,0.960148
132.339691,0.952909
131.340958,0.945505
130.308853,0.938036
129.310074,0.930854
128.311264,0.923563
127.279228,0.916166
126.280426,0.908892
125.281647,0.901362
124.249550,0.893976
123.250801,0.886772
122.251991,0.879551
121.219940,0.871953
120.221115,0.864574
119.222366,0.857346
118.190239,0.849830
117.191505,0.842691
116.192688,0.835508
115.160629,0.827664
114.161819,0.820670
113.163063,0.813245
112.130974,0.805714
111.132202,0.798531
110.133385,0.791227
109.101326,0.783772
108.102509,0.776657
107.103767,0.769260
106.071671,0.761829
105.072891,0.754508
104.074081,0.747162
103.042015,0.739877
102.043213,0.732462
101.011185,0.724993
100.012398,0.717877
99.013596,0.710570
97.981529,0.703008
96.982719,0.695887
95.983971,0.688433
94.951881,0.681121
93.953102,0.673654
92.954285,0.666687
91.922226,0.658989
90.923409,0.651799
89.924667,0.644585
88.892548,0.637021
87.893791,0.629961
86.894981,0.622496
85.862923,0.615185
84.864113,0.607956
83.865334,0.600525
82.833237,0.593288
81.834457,0.585869
80.835648,0.578707
79.803581,0.571094
78.804771,0.563963
77.806030,0.556687
76.773903,0.549277
75.775154,0.541931
74.776337,0.534787
73.744286,0.527270
72.745476,0.519881
71.746696,0.512813
70.714600,0.505218
69.715820,0.498108
68.717003,0.490797
67.684944,0.483278
66.686142,0.476199
65.687355,0.468980
64.655266,0.461343
63.656487,0.454193
62.657673,0.446964
61.625610,0.439427
60.626797,0.432255
59.628021,0.425119
58.595932,0.417545
57.597145,0.410247
56.598400,0.403192
55.566277,0.395512
54.567528,0.388293
53.568687,0.381338
52.536625,0.373864
51.537811,0.366428
50.505753,0.358993
49.506939,0.351789
48.508160,0.344491
47.476070,0.337178
46.477287,0.329705
45.478477,0.322710
44.446415,0.315022
43.447601,0.308004
42.448826,0.300705
41.416702,0.293178
40.417953,0.286096
39.419140,0.278615
38.387077,0.271451
37.388233,0.263923
36.389488,0.256960
35.357365,0.249405
34.358585,0.242000
33.359772,0.234841
32.327709,0.227423
31.328901,0.220342
30.330120,0.212938
29.297997,0.205524
28.299248,0.198299
27.300406,0.191011
26.268345,0.183721
25.269531,0.176290
24.270754,0.169229
23.238661,0.161678
22.239880,0.154483
21.241070,0.147379
20.209009,0.139788
19.210163,0.132472
18.211416,0.125439
17.179293,0.117840
16.180511,0.110511
15.181702,0.103457
14.149640,0.095869
13.150796,0.088650
12.152049,0.081509
11.119988,0.074034
10.121144,0.066783
9.122396,0.059558
8.090272,0.052076
7.091493,0.044929
6.092681,0.037675
5.060620,0.030455
4.061809,0.024292
3.062997,0.018235
2.030904,0.011869
1.032093,0.005860
0.000000,0.001369
-0.998747,0.006627
-1.997624,0.012685
-3.029652,0.018952
-4.028464,0.025138
-5.027276,0.031141
-6.059368,0.037928
-7.058115,0.045174
-8.056992,0.052200
-9.089020,0.059893
-10.087896,0.066946
-11.086643,0.074053
-12.118735,0.081779
-13.117547,0.088975
-14.116360,0.096209
-15.148452,0.103500
-16.147263,0.110938
-17.146011,0.117911
-18.178169,0.125339
-19.176916,0.132666
-20.175728,0.140020
-21.207819,0.147416
-22.206633,0.154762
-23.205444,0.161747
-24.237535,0.169278
-25.236284,0.176623
-26.235159,0.183828
-27.267187,0.191079
-28.266064,0.198499
-29.264811,0.205541
-30.296968,0.213183
-31.295717,0.220309
-32.294464,0.227781
-33.326618,0.234885
-34.325367,0.242378
-35.324245,0.249583
-36.356274,0.256991
-37.355083,0.264250
-38.353897,0.271494
-39.385986,0.278775
-40.384800,0.286229
-41.383614,0.293427
-42.415703,0.300732
-43.414516,0.307989
-44.413265,0.315429
-45.445419,0.322699
-46.444168,0.329990
-47.443043,0.337266
-48.475071,0.344671
-49.473949,0.351952
-50.472694,0.359140
-51.504852,0.366633
-52.503601,0.373805
-53.535759,0.381385
-54.534504,0.388501
-55.533318,0.395861
-56.565411,0.403230
-57.564224,0.410541
-58.563034,0.417561
-59.595127,0.425313
-60.593937,0.432396
-61.592751,0.439796
-62.624840,0.447195
-63.623653,0.454558
-64.622467,0.461602
-65.654556,0.469057
-66.653366,0.476394
-67.652184,0.483439
-68.684273,0.491142
-69.683090,0.498414
-70.681831,0.505592
-71.713989,0.513017
-72.712738,0.520197
-73.711617,0.527557
-74.743645,0.535042
-75.742516,0.542264
-76.741264,0.549241
-77.773361,0.557058
-78.772171,0.564040
-79.770981,0.571519
-80.803070,0.578710
-81.801888,0.586187
-82.800697,0.593213
-83.832787,0.600973
-84.831604,0.608053
-85.830414,0.615207
-86.862572,0.622928
-87.861313,0.630111
-88.860130,0.637347
-89.892227,0.644901
-90.891098,0.652210
-91.889847,0.659217
-92.921997,0.666932
-93.920753,0.674030
-94.919624,0.681256
-95.951653,0.688842
-96.950531,0.696096
-97.949280,0.703226
-98.981438,0.710867
-99.980179,0.718008
-100.979065,0.725211
-102.011093,0.732767
-103.009964,0.740049
-104.008705,0.747317
-105.040863,0.754934
-106.039619,0.761831
-107.071777,0.769729
-108.070587,0.776734
-109.069389,0.784031
-110.101486,0.791592
-111.100304,0.798780
-112.099113,0.806303
-113.131271,0.813697
-114.130020,0.820831
-115.128899,0.827981
-116.160927,0.835600
-117.159798,0.843000
-118.158554,0.850227
-119.190704,0.857843
-120.189453,0.865059
-121.188255,0.872298
-122.220421,0.879698
-123.219162,0.887127
-124.218033,0.894204
-125.250061,0.901686
-126.248947,0.909025
-127.247688,0.916373
-128.279846,0.923920
-129.278656,0.930984
-130.277481,0.938519
-131.309555,0.945874
-132.308380,0.953411
-133.307190,0.960434
-134.339355,0.968055
-135.338089,0.975402
-136.336975,0.982541
-137.369003,0.990137
-138.367874,0.997424
-139.366684,1.004773
-140.398773,1.012227
-141.397583,1.019649
-142.396408,1.026677
-143.428497,1.034505
-144.427368,1.041689
-145.426117,1.049071
-146.458282,1.056361
-147.457077,1.063997
-148.455902,1.071014
-149.487991,1.078638
-150.486877,1.085964
-151.485611,1.093105
-152.517776,1.100906
-153.516525,1.108107
-154.515396,1.115354
-155.547485,1.123000
-156.546295,1.130201
-157.578400,1.137731
-158.577271,1.144881
-159.576004,1.152314
-160.608170,1.159923
-161.606918,1.167235
-162.605804,1.174556
-163.637894,1.181973
-164.636765,1.189419
-165.635513,1.196709
-166.667603,1.204128
-167.666428,1.211494
-168.665222,1.218725
-169.697372,1.226509
-170.696136,1.233669
-171.695007,1.241040
-172.727097,1.248687
-173.725922,1.255890
-174.724731,1.263340
-175.756882,1.270810
-176.755630,1.278144
-177.754501,1.285523
-178.786606,1.293160
-179.785477,1.300443
-180.784225,1.307726
-181.816376,1.315314
-182.815125,1.322666
-183.813995,1.330043
-184.846100,1.337594
-185.844971,1.344895
-186.843719,1.352261
-187.875870,1.359816
-188.874695,1.367242
-189.873505,1.374508
-190.905594,1.382168
-191.904465,1.389408
-192.903214,1.396713
-193.935364,1.404398
-194.934189,1.411824
-195.933060,1.419156
-196.965088,1.426713
-197.963959,1.434224
-198.962769,1.441505
-199.994934,1.449090
-200.993683,1.456301
-201.992554,1.463694
-203.024643,1.471400
-204.023468,1.478899
-205.022263,1.486227
-206.054428,1.493771
-207.053177,1.501315
-208.085403,1.508811
-209.084137,1.516273
-210.082886,1.523626
-211.115112,1.531225
-212.113861,1.538648
-213.112732,1.546050
-214.144836,1.553578
-215.143646,1.561211
-216.142456,1.568443
-217.174606,1.576202
-218.173355,1.583557
-219.172241,1.590957
-220.204330,1.598621
-221.203201,1.606037
-222.201950,1.613303
-223.234177,1.621010
-224.232925,1.628575
-225.231796,1.636068
-226.263885,1.643581
-227.262772,1.651106
-228.261505,1.658538
-229.293671,1.666164
-230.292496,1.673645
-231.291367,1.681200
-232.323380,1.688812
-233.322250,1.696119
-234.321075,1.705423
-235.353226,1.713531
-236.351990,1.720919
-237.350861,1.728547
-238.382965,1.736198
-239.381836,1.743530
-240.380569,1.751153
-241.412811,1.758871
-242.411545,1.766384
-243.410416,1.773806
-244.442505,1.781533
-245.441391,1.789066
-246.440125,1.796486
-247.472305,1.804348
-248.471100,1.811550
-249.469971,1.819406
-250.502060,1.827011
-251.500946,1.834534
-252.499710,1.841981
-253.531860,1.849680
-254.530670,1.857252
-255.529404,1.864714
-256.561554,1.872535
-257.560394,1.879926
-258.559265,1.887464
-259.591339,1.895208
-260.590240,1.902798
-261.622253,1.910414
-262.621124,1.918095
-263.619934,1.925501
-264.652100,1.933254
-265.650909,1.940769
-266.649780,1.948321
-267.681824,1.956052
-268.680695,1.963640
-269.679504,1.970931
-270.711670,1.975909
-271.710449,1.975572
-272.709351,1.975757
