2,Ferrari 296 GT3,baseline
Steering Wheel Angle,Yaw Rate
227.290115,1.499847
226.291382,1.500177
225.259277,1.499638
224.260529,1.493812
223.261749,1.487757
222.229706,1.481330
221.230927,1.475180
220.232147,1.468899
219.200073,1.462422
218.201324,1.456040
217.202515,1.449813
216.170486,1.443137
215.171677,1.436761
214.172928,1.430291
213.140839,1.423552
212.142090,1.416898
211.143280,1.410139
210.111252,1.403266
209.112442,1.396336
208.113693,1.389534
207.081604,1.382606
206.082840,1.375873
205.050766,1.368824
204.052017,1.362033
203.053238,1.355234
202.021164,1.348306
201.022385,1.341516
200.023605,1.334743
198.991516,1.327665
197.992783,1.320775
196.994003,1.313747
195.961929,1.306386
194.963150,1.299195
193.964371,1.292058
192.932281,1.284630
191.933533,1.277642
190.934753,1.271000
189.902695,1.264086
188.903946,1.257425
187.905136,1.251245
186.873108,1.244652
185.874298,1.238181
184.875549,1.231974
183.843445,1.224987
182.844696,1.218087
181.845901,1.211557
180.813843,1.204148
179.815063,1.197180
178.816269,1.190560
177.784180,1.183598
176.785431,1.176993
175.786636,1.170162
174.754608,1.163086
173.755783,1.156473
172.757034,1.149732
171.724945,1.142863
170.726196,1.136066
169.727371,1.129533
168.695328,1.122469
167.696548,1.115676
166.697769,1.109152
165.665665,1.102044
164.666916,1.095298
163.668106,1.088644
162.636078,1.081749
161.637283,1.074997
160.638535,1.068324
159.606430,1.061349
158.607651,1.054635
157.608841,1.047955
156.576813,1.040994
155.578003,1.034316
154.545944,1.027417
153.547165,1.020587
152.548386,1.013863
151.516296,1.007015
150.517532,1.000189
149.518738,0.993492
148.486664,0.986592
147.487885,0.979927
146.489105,0.973219
145.457016,0.966239
144.458267,0.959551
143.459503,0.952898
142.427399,0.945832
141.428650,0.939178
140.429840,0.932593
139.397781,0.925555
138.399002,0.918819
137.400223,0.912138
136.368118,0.905156
135.369385,0.898551
134.370560,0.891795
133.338501,0.884806
132.339691,0.878231
131.340958,0.871432
130.308853,0.864538
129.310074,0.857747
128.311264,0.851112
127.279228,0.844220
126.280426,0.837539
125.281647,0.830819
124.249550,0.823843
123.250801,0.817239
122.251991,0.810450
121.219940,0.803738
120.221115,0.796780
119.222366,0.790200
118.190239,0.783240
117.191505,0.776512
116.192688,0.769848
115.160629,0.762932
114.161819,0.756246
113.163063,0.749468
112.130974,0.742556
111.132202,0.735966
110.133385,0.729263
109.101326,0.722225
108.102509,0.715545
107.103767,0.708945
106.071671,0.702083
105.072891,0.695313
104.074081,0.688538
103.042015,0.681610
102.043213,0.674978
101.011185,0.668077
100.012398,0.661355
99.013596,0.654589
97.981529,0.647724
96.982719,0.640976
95.983971,0.634319
94.951881,0.627289
93.953102,0.620666
92.954285,0.613968
91.922226,0.607033
90.923409,0.600378
89.924667,0.593685
88.892548,0.586757
87.893791,0.580129
86.894981,0.573397
85.862923,0.566507
84.864113,0.559743
83.865334,0.553147
82.833237,0.546141
81.834457,0.539454
80.835648,0.532743
79.803581,0.525914
78.804771,0.519214
77.806030,0.512473
76.773903,0.505518
75.775154,0.498813
74.776337,0.492122
73.744286,0.485225
72.745476,0.478494
71.746696,0.471896
70.714600,0.464867
69.715820,0.458253
68.717003,0.451491
67.684944,0.444611
66.686142,0.438004
65.687355,0.431128
64.655266,0.424302
63.656487,0.417722
62.657673,0.410908
61.625610,0.403901
60.626797,0.397324
59.628021,0.390626
58.595932,0.383751
57.597145,0.376965
56.598400,0.370381
55.566277,0.363356
54.567528,0.356821
53.568687,0.350017
52.536625,0.343087
51.537811,0.336445
50.505753,0.329557
49.506939,0.322918
48.508160,0.316038
47.476070,0.309237
46.477287,0.302494
45.478477,0.295787
44.446415,0.289036
43.447601,0.282197
42.448826,0.275464
41.416702,0.268601
40.417953,0.261954
39.419140,0.255283
38.387077,0.248302
37.388233,0.241569
36.389488,0.234932
35.357365,0.228012
34.358585,0.221356
33.359772,0.214692
32.327709,0.207710
31.328901,0.201038
30.330120,0.194351
29.297997,0.187427
28.299248,0.180711
27.300406,0.174000
26.268345,0.167152
25.269531,0.160437
24.270754,0.153679
23.238661,0.146853
22.239880,0.140095
21.241070,0.133427
20.209009,0.126518
19.210163,0.119917
18.211416,0.113124
17.179293,0.106291
16.180511,0.099485
15.181702,0.092844
14.149640,0.085942
13.150796,0.079297
12.152049,0.072585
11.119988,0.065648
10.121144,0.059002
9.122396,0.052163
8.090272,0.045608
7.091493,0.039926
6.092681,0.034290
5.060620,0.028484
4.061809,0.022752
3.062997,0.017149
2.030904,0.011316
1.032093,0.005660
0.000000,0.001467
-0.998747,0.005888
-1.997624,0.011412
-3.029652,0.017282
-4.028464,0.022938
-5.027276,0.028604
-6.059368,0.034450
-7.058115,0.040079
-8.056992,0.045689
-9.089020,0.052116
-10.087896,0.058752
-11.086643,0.065477
-12.118735,0.072378
-13.117547,0.078937
-14.116360,0.085727
-15.148452,0.092567
-16.147263,0.099278
-17.146011,0.106006
-18.178169,0.112862
-19.176916,0.119618
-20.175728,0.126217
-21.207819,0.133241
-22.206633,0.139943
-23.205444,0.146625
-24.237535,0.153431
-25.236284,0.160201
-26.235159,0.166952
-27.267187,0.173790
-28.266064,0.180447
-29.264811,0.187223
-30.296968,0.194122
-31.295717,0.200732
-32.294464,0.207422
-33.326618,0.214386
-34.325367,0.221166
-35.324245,0.227849
-36.356274,0.234735
-37.355083,0.241381
-38.353897,0.248022
-39.385986,0.254950
-40.384800,0.261708
-41.383614,0.268291
-42.415703,0.275276
-43.414516,0.281934
-44.413265,0.288706
-45.445419,0.295547
-46.444168,0.302275
-47.443043,0.308907
-48.475071,0.315882
-49.473949,0.322667
-50.472694,0.329309
-51.504852,0.336234
-52.503601,0.342807
-53.535759,0.349933
-54.534504,0.356398
-55.533318,0.363252
-56.565411,0.370144
-57.564224,0.376759
-58.563034,0.383468
-59.595127,0.390444
-60.593937,0.397105
-61.592751,0.403762
-62.624840,0.410681
-63.623653,0.417349
-64.622467,0.424220
-65.654556,0.430949
-66.653366,0.437722
-67.652184,0.444370
-68.684273,0.451329
-69.683090,0.458037
-70.681831,0.464567
-71.713989,0.471649
-72.712738,0.478400
-73.711617,0.485029
-74.743645,0.492051
-75.742516,0.498648
-76.741264,0.505280
-77.773361,0.512213
-78.772171,0.519016
-79.770981,0.525678
-80.803070,0.532618
-81.801888,0.539299
-82.800697,0.545949
-83.832787,0.552908
-84.831604,0.559564
-85.830414,0.566328
-86.862572,0.573256
-87.861313,0.579841
-88.860130,0.586589
-89.892227,0.593503
-90.891098,0.600260
-91.889847,0.606963
-92.921997,0.613844
-93.920753,0.620527
-94.919624,0.627270
-95.951653,0.634193
-96.950531,0.640820
-97.949280,0.647564
-98.981438,0.654463
-99.980179,0.661195
-100.979065,0.667885
-102.011093,0.674801
-103.009964,0.681474
-104.008705,0.688179
-105.040863,0.695113
-106.039619,0.701770
-107.071777,0.708714
-108.070587,0.715457
-109.069389,0.722145
-110.101486,0.729018
-111.100304,0.735729
-112.099113,0.742435
-113.131271,0.749370
-114.130020,0.756038
-115.128899,0.762757
-116.160927,0.769693
-117.159798,0.776377
-118.158554,0.783124
-119.190704,0.789969
-120.189453,0.796655
-121.188255,0.803416
-122.220421,0.810311
-123.219162,0.817036
-124.218033,0.823685
-125.250061,0.830637
-126.248947,0.837331
-127.247688,0.844054
-128.279846,0.850964
-129.278656,0.857696
-130.277481,0.864466
-131.309555,0.871296
-132.308380,0.878026
-133.307190,0.884680
-134.339355,0.891719
-135.338089,0.898362
-136.336975,0.905030
-137.369003,0.911929
-138.367874,0.918842
-139.366684,0.925411
-140.398773,0.932347
-141.397583,0.939068
-142.396408,0.945705
-143.428497,0.952616
-144.427368,0.959432
-145.426117,0.966049
-146.458282,0.973014
-147.457077,0.979725
-148.455902,0.986294
-149.487991,0.993323
-150.486877,1.000040
-151.485611,1.006798
-152.517776,1.013716
-153.516525,1.020450
-154.515396,1.027143
-155.547485,1.034090
-156.546295,1.040811
-157.578400,1.047718
-158.577271,1.054403
-159.576004,1.061167
-160.608170,1.068113
-161.606918,1.074768
-162.605804,1.081459
-163.637894,1.088465
-164.636765,1.095108
-165.635513,1.101967
-166.667603,1.108773
-167.666428,1.115549
-168.665222,1.122255
-169.697372,1.129099
-170.696136,1.135852
-171.695007,1.142619
-172.727097,1.149623
-173.725922,1.156324
-174.724731,1.163063
-175.756882,1.169965
-176.755630,1.176718
-177.754501,1.183440
-178.786606,1.190398
-179.785477,1.197098
-180.784225,1.203715
-181.816376,1.210792
-182.815125,1.217438
-183.813995,1.224201
-184.846100,1.231159
-185.844971,1.237870
-186.843719,1.244611
-187.875870,1.251427
-188.874695,1.258329
-189.873505,1.265040
-190.905594,1.271896
-191.904465,1.278641
-192.903214,1.285208
-193.935364,1.292377
-194.934189,1.298974
-195.933060,1.305826
-196.965088,1.312733
-197.963959,1.319437
-198.962769,1.326208
-199.994934,1.333097
-200.993683,1.339877
-201.992554,1.346562
-203.024643,1.353518
-204.023468,1.360289
-205.022263,1.367016
-206.054428,1.373885
-207.053177,1.380741
-208.085403,1.387626
-209.084137,1.394365
-210.082886,1.401047
-211.115112,1.408035
-212.113861,1.414840
-213.112732,1.421556
-214.144836,1.428256
-215.143646,1.435216
-216.142456,1.441918
-217.174606,1.449007
-218.173355,1.455561
-219.172241,1.462415
-220.204330,1.469342
-221.203201,1.476143
-222.201950,1.482841
-223.234177,1.489802
-224.232925,1.496392
-225.231796,1.503287
-226.263885,1.504166
-227.262772,1.504291
