2,Holden Commodore 2014,baseline
Steering Wheel Angle,Yaw Rate
189.024994,1.507157
188.008728,1.498836
187.019974,1.491949
186.003708,1.482991
185.014938,1.469714
184.026154,1.459047
183.009888,1.450880
182.021133,1.441420
181.004852,1.431241
180.016098,1.422776
178.999817,1.414191
178.011047,1.404635
177.022247,1.395636
176.005981,1.386379
175.017227,1.377266
174.000961,1.368021
173.012192,1.359150
172.023392,1.349869
171.007111,1.340279
170.018356,1.331628
169.002075,1.322490
168.013321,1.313614
167.024506,1.304506
166.008270,1.295297
165.019485,1.286166
164.003220,1.277117
163.014450,1.268316
162.025650,1.259119
161.009415,1.249625
160.020615,1.241239
159.004333,1.232431
158.015564,1.223432
157.026764,1.214136
156.010544,1.204885
155.021729,1.196107
154.005478,1.186970
153.016708,1.178471
152.000443,1.169794
151.011673,1.160429
150.022858,1.151241
149.006622,1.142472
148.017822,1.133932
147.001556,1.124492
146.012772,1.115792
145.023972,1.106994
144.007736,1.098335
143.018936,1.088883
142.002655,1.079608
141.013901,1.069759
140.025085,1.061062
139.008850,1.052207
138.020050,1.044401
137.003769,1.035521
136.014999,1.026161
135.026199,1.017390
134.009964,1.008501
133.021164,0.999573
132.004913,0.990932
131.016113,0.981528
130.027283,0.973101
129.011078,0.964400
128.022263,0.955779
127.006020,0.947752
126.017204,0.939547
125.000938,0.929641
124.012169,0.921370
123.023369,0.912734
122.007118,0.903236
121.018311,0.894336
120.002029,0.885280
119.013283,0.876948
118.024460,0.868921
117.008224,0.860807
116.019402,0.851711
115.003166,0.843312
114.014351,0.834500
113.025566,0.825903
112.009323,0.817644
111.020508,0.809104
110.004265,0.801147
109.015457,0.792279
108.026642,0.784474
107.010399,0.775473
106.021584,0.768208
105.005371,0.758945
104.016556,0.750738
103.027771,0.742676
102.011497,0.734207
101.022690,0.725798
100.006439,0.717366
99.017632,0.709367
98.001389,0.701896
97.012573,0.693230
96.023758,0.685143
95.007515,0.675621
94.018700,0.668904
93.002457,0.661673
92.013649,0.654563
91.024887,0.647572
90.008591,0.640209
89.019775,0.633063
88.003563,0.625753
87.014717,0.618717
86.025963,0.611550
85.009674,0.604151
84.020859,0.597107
83.004631,0.589846
82.015800,0.582660
81.027039,0.575573
80.010742,0.568274
79.021935,0.561262
78.005684,0.553923
77.016876,0.546742
76.000633,0.539448
75.011818,0.532274
74.023056,0.525180
73.006760,0.517958
72.017944,0.510930
71.001701,0.503613
70.012894,0.496496
69.024109,0.489368
68.007835,0.482075
67.018997,0.474931
66.002754,0.467611
65.013939,0.460539
64.025177,0.453471
63.008881,0.446221
62.020069,0.439106
61.003826,0.431823
60.015011,0.424697
59.026226,0.417555
58.009926,0.410348
57.021172,0.403312
56.004875,0.395972
55.016060,0.388967
54.027275,0.381885
53.011005,0.374568
52.022217,0.367486
51.005924,0.360189
50.017109,0.353182
49.000866,0.345906
48.012054,0.338813
47.023270,0.331812
46.006969,0.324962
45.018211,0.317585
44.001915,0.310225
43.013073,0.303133
42.024315,0.296073
41.008018,0.288836
40.019230,0.281813
39.002964,0.274589
38.014122,0.267536
37.025364,0.260484
36.009068,0.253220
35.020279,0.246212
34.003983,0.238939
33.015167,0.231991
32.026382,0.224905
31.010088,0.217677
30.021326,0.210685
29.005032,0.203421
28.016247,0.196392
27.027433,0.189308
26.011137,0.182127
25.022348,0.175255
24.006052,0.168068
23.017294,0.161172
22.000998,0.153980
21.012157,0.147019
20.023371,0.140005
19.007101,0.132862
18.018314,0.125924
17.002018,0.118768
16.013233,0.111760
15.024419,0.104807
14.008123,0.097705
13.019336,0.090754
12.003040,0.083575
11.014254,0.076606
10.025441,0.069623
9.009144,0.062454
8.020358,0.055493
7.004062,0.048328
6.015275,0.041358
5.026462,0.034460
4.010166,0.027312
3.021353,0.020292
2.005083,0.013115
1.016323,0.006142
0.000000,0.003101
-0.988760,0.008025
-1.977626,0.014972
-2.993896,0.022140
-3.982709,0.029145
-4.998979,0.036298
-5.987792,0.043230
-6.976604,0.050243
-7.992875,0.057428
-8.981688,0.064322
-9.997957,0.071464
-10.986771,0.078451
-11.975583,0.085444
-12.991853,0.092576
-13.980665,0.099500
-14.996989,0.106723
-15.985749,0.113664
-16.974613,0.120616
-17.990831,0.127771
-18.979698,0.134755
-19.995966,0.141887
-20.984779,0.148843
-21.973593,0.155767
-22.989862,0.162963
-23.978676,0.169921
-24.994999,0.177085
-25.983759,0.184023
-27.000082,0.191198
-27.988842,0.198160
-28.977654,0.205240
-29.993923,0.212466
-30.982737,0.219465
-31.999060,0.226698
-32.987873,0.233715
-33.976685,0.240779
-34.992954,0.248020
-35.981770,0.255079
-36.998093,0.262288
-37.986855,0.269344
-38.975719,0.276343
-39.991932,0.283573
-40.980801,0.290689
-41.997017,0.297881
-42.985882,0.304975
-43.974697,0.312020
-44.990967,0.319237
-45.979778,0.326228
-46.996048,0.333536
-47.984913,0.340601
-48.973728,0.347641
-49.989998,0.354940
-50.978813,0.362001
-51.995083,0.369254
-52.983894,0.376310
-54.000217,0.383597
-54.989029,0.390638
-55.977844,0.397732
-56.994110,0.405034
-57.982929,0.412015
-58.999199,0.419334
-59.988010,0.426430
-60.976871,0.433489
-61.993145,0.440729
-62.981956,0.447821
-63.998226,0.455142
-64.987038,0.462259
-65.975906,0.469352
-66.992180,0.476640
-67.980995,0.483707
-68.997253,0.491028
-69.986069,0.498045
-70.974884,0.505146
-71.991211,0.512526
-72.980019,0.519576
-73.996292,0.526872
-74.985161,0.533968
-75.973915,0.541074
-76.990234,0.548350
-77.979050,0.555508
-78.995323,0.562789
-79.984192,0.569861
-81.000404,0.577213
-81.989273,0.584270
-82.978142,0.591314
-83.994354,0.598704
-84.983215,0.605804
-85.999489,0.613111
-86.988304,0.620202
-87.977112,0.627307
-88.993439,0.634618
-89.982254,0.641654
-90.998520,0.648926
-91.987381,0.656060
-92.976151,0.663195
-93.992470,0.670492
-94.981339,0.677505
-95.997551,0.684863
-96.986420,0.691955
-97.975182,0.699187
-98.991501,0.709031
-99.980316,0.717999
-100.996635,0.726096
-101.985451,0.734932
-103.001717,0.742746
-103.990585,0.750516
-104.979347,0.758617
-105.995674,0.767964
-106.984535,0.775844
-108.000801,0.784211
-108.989616,0.792654
-109.978432,0.801348
-110.994759,0.809161
-111.983620,0.817861
-112.999840,0.825650
-113.988701,0.834599
-114.977516,0.842754
-115.993790,0.851554
-116.982597,0.859546
-117.998917,0.868614
-118.987793,0.877266
-119.976540,0.885417
-120.992874,0.893943
-121.981682,0.902721
-122.998009,0.911044
-123.986816,0.919027
-124.975624,0.927425
-125.991959,0.936715
-126.980713,0.945649
-127.997040,0.954815
-128.985855,0.964482
-130.002182,0.972884
-130.991043,0.981681
-131.979797,0.990250
-132.996124,0.999672
-133.984924,1.008043
-135.001266,1.016555
-135.990128,1.024758
-136.978897,1.033989
-137.995209,1.042912
-138.984009,1.051392
-140.000351,1.060169
-140.989212,1.069208
-141.977966,1.078438
-142.994293,1.087165
-143.983093,1.095596
-144.999435,1.105182
-145.988190,1.114224
-146.977051,1.123808
-147.993378,1.132267
-148.982193,1.141189
-149.998520,1.151516
-150.987274,1.160123
-151.976135,1.169137
-152.992462,1.178525
-153.981277,1.187266
-154.997604,1.196562
-155.986404,1.205602
-157.002731,1.214544
-157.991592,1.223375
-158.980362,1.232623
-159.996674,1.242132
-160.985504,1.250627
-162.001816,1.260022
-162.990631,1.269176
-163.979446,1.277934
-164.995819,1.287476
-165.984589,1.296438
-167.000900,1.305544
-167.989716,1.314603
-168.978577,1.323839
-169.994904,1.333479
-170.983719,1.342169
-172.000046,1.351693
-172.988800,1.360926
-173.977661,1.369709
-174.993927,1.379008
-175.982803,1.388316
-176.999130,1.397735
-177.987946,1.407068
-178.976807,1.416190
-179.993011,1.425519
-180.981888,1.434583
-181.998260,1.444202
-182.987030,1.453642
-184.003342,1.462732
-184.992157,1.472025
-185.981033,1.481338
-186.997345,1.490849
-187.986160,1.500414
-189.002487,1.509597
