2,Kia Optima,baseline
Steering Wheel Angle,Yaw Rate
289.001343,1.830626
288.012573,1.824656
287.023834,1.817537
286.007568,1.808513
285.018768,1.800938
284.002563,1.794026
283.013824,1.787643
281.997528,1.780762
281.008789,1.774129
280.020020,1.767652
279.003784,1.761680
278.014984,1.755610
276.998779,1.749082
276.010010,1.742995
275.021179,1.736971
274.005005,1.730818
273.016235,1.724657
271.999969,1.718169
271.011169,1.711374
270.022430,1.704462
269.006195,1.698365
268.017395,1.692676
267.001190,1.685344
266.012421,1.678129
265.023651,1.672694
264.007385,1.667158
263.018616,1.660073
262.002350,1.652326
261.013611,1.646519
260.024841,1.641363
259.008575,1.634466
258.019806,1.626791
257.003571,1.620484
256.014801,1.615516
254.998566,1.608975
254.009781,1.601299
253.021011,1.594651
252.004791,1.589456
251.015961,1.583666
249.999741,1.575891
249.010956,1.568949
248.022217,1.563584
247.005966,1.557694
246.017166,1.550801
245.000916,1.543487
244.012177,1.537618
243.023422,1.532014
242.007141,1.525378
241.018341,1.518279
240.002121,1.511684
239.013351,1.506159
238.024597,1.500022
237.008316,1.492996
236.019547,1.486175
235.003296,1.480048
234.014542,1.474443
233.025772,1.467904
232.009491,1.460682
231.020752,1.454357
230.004471,1.448536
229.015686,1.442488
227.999451,1.435340
227.010681,1.428507
226.021896,1.422947
225.005646,1.417083
224.016876,1.410360
223.000626,1.402910
222.011841,1.396922
221.023071,1.391627
220.006836,1.384886
219.018051,1.377736
218.001816,1.371221
217.013016,1.365903
216.024261,1.359762
215.007996,1.352316
214.019226,1.345791
213.002960,1.340102
212.014175,1.334278
211.025421,1.327311
210.009140,1.320299
209.020386,1.314590
208.004135,1.308729
207.015366,1.302127
206.026566,1.295314
205.010300,1.289031
204.021530,1.283256
203.005295,1.276928
202.016510,1.270175
201.000275,1.263513
200.011475,1.257645
199.022705,1.251815
198.006454,1.245087
197.017670,1.238390
196.001419,1.232002
195.012619,1.226389
194.023849,1.220174
193.007599,1.213125
192.018814,1.206643
191.002563,1.200869
190.013794,1.194934
189.024994,1.188064
188.008728,1.181228
187.019974,1.175610
186.003708,1.169633
185.014938,1.162890
184.026154,1.155919
183.009888,1.149965
182.021133,1.144519
181.004852,1.137720
180.016098,1.130776
178.999817,1.124527
178.011047,1.119066
177.022247,1.112605
176.005981,1.105363
175.017227,1.099344
174.000961,1.093547
173.012192,1.087381
172.023392,1.080510
171.007111,1.073940
170.018356,1.068313
169.002075,1.062052
168.013321,1.055337
167.024506,1.048811
166.008270,1.042765
165.019485,1.036813
164.003220,1.030207
163.014450,1.023644
162.025650,1.017502
161.009415,1.011367
160.020615,1.005139
159.004333,0.998892
158.015564,0.992096
157.026764,0.986027
156.010544,0.979824
155.021729,0.973467
154.005478,0.966779
153.016708,0.960567
152.000443,0.954483
151.011673,0.948278
150.022858,0.941605
149.006622,0.935136
148.017822,0.929179
147.001556,0.922955
146.012772,0.916387
145.023972,0.909911
144.007736,0.903782
143.018936,0.897909
142.002655,0.891172
141.013901,0.884625
140.025085,0.878648
139.008850,0.872518
138.020050,0.866072
137.003769,0.859331
136.014999,0.853289
135.026199,0.847378
134.009964,0.840776
133.021164,0.834282
132.004913,0.827897
131.016113,0.822013
130.027283,0.815694
129.011078,0.808981
128.022263,0.802765
127.006020,0.796592
126.017204,0.790393
125.000938,0.783783
124.012169,0.777550
123.023369,0.771519
122.007118,0.765114
121.018311,0.758703
120.002029,0.752228
119.013283,0.746177
118.024460,0.740030
117.008224,0.733454
116.019402,0.727268
115.003166,0.720914
114.014351,0.714723
113.025566,0.708441
112.009323,0.701966
111.020508,0.695781
110.004265,0.689402
109.015457,0.683153
108.026642,0.676966
107.010399,0.670529
106.021584,0.664325
105.005371,0.657943
104.016556,0.651694
103.027771,0.645492
102.011497,0.639076
101.022690,0.632833
100.006439,0.626483
99.017632,0.620344
98.001389,0.613829
97.012573,0.607597
96.023758,0.601466
95.007515,0.595074
94.018700,0.588780
93.002457,0.582336
92.013649,0.576316
91.024887,0.570033
90.008591,0.563526
89.019775,0.557377
88.003563,0.551065
87.014717,0.544795
86.025963,0.538520
85.009674,0.532137
84.020859,0.526080
83.004631,0.519601
82.015800,0.513312
81.027039,0.507123
80.010742,0.500802
79.021935,0.494537
78.005684,0.487941
77.016876,0.481929
76.000633,0.475611
75.011818,0.469330
74.023056,0.463018
73.006760,0.456766
72.017944,0.450737
71.001701,0.444073
70.012894,0.437846
69.024109,0.431863
68.007835,0.425505
67.018997,0.419150
66.002754,0.412672
65.013939,0.406732
64.025177,0.400549
63.008881,0.393817
62.020069,0.387640
61.003826,0.381588
60.015011,0.375382
59.026226,0.368806
58.009926,0.362610
57.021172,0.356595
56.004875,0.350164
55.016060,0.343687
54.027275,0.337655
53.011005,0.331476
52.022217,0.325065
51.005924,0.318499
50.017109,0.312541
49.000866,0.306212
48.012054,0.299852
47.023270,0.293555
46.006969,0.287394
45.018211,0.281120
44.001915,0.274588
43.013073,0.268475
42.024315,0.262521
41.008018,0.255879
40.019230,0.249511
39.002964,0.243422
38.014122,0.237327
37.025364,0.230711
36.009068,0.224312
35.020279,0.218579
34.003983,0.212136
33.015167,0.205484
32.026382,0.199329
31.010088,0.193456
30.021326,0.187078
29.005032,0.180256
28.016247,0.174375
27.027433,0.168537
26.011137,0.161738
25.022348,0.155331
24.006052,0.149318
23.017294,0.143351
22.000998,0.136406
21.012157,0.130208
20.023371,0.124578
19.007101,0.118031
18.018314,0.111292
17.002018,0.105235
16.013233,0.099448
15.024419,0.092914
14.008123,0.086178
13.019336,0.080492
12.003040,0.074220
11.014254,0.067445
10.025441,0.061395
9.009144,0.055514
8.020358,0.049093
7.004062,0.042128
6.015275,0.036428
5.026462,0.030570
4.010166,0.023650
3.021353,0.017255
2.005083,0.011550
1.016323,0.005319
0.000000,0.001054
-0.988760,0.006847
-1.977626,0.013510
-2.993896,0.019634
-3.982709,0.025363
-4.998979,0.032343
-5.987792,0.038820
-6.976604,0.044440
-7.992875,0.050684
-8.981688,0.057443
-9.997957,0.063767
-10.986771,0.069353
-11.975583,0.075831
-12.991853,0.082784
-13.980665,0.088526
-14.996989,0.094567
-15.985749,0.101255
-16.974613,0.107650
-17.990831,0.113505
-18.979698,0.119632
-19.995966,0.126570
-20.984779,0.132681
-21.973593,0.138339
-22.989862,0.144994
-23.978676,0.151549
-24.994999,0.157614
-25.983759,0.163552
-27.000082,0.170384
-27.988842,0.176656
-28.977654,0.182441
-29.993923,0.188838
-30.982737,0.195433
-31.999060,0.201725
-32.987873,0.207456
-33.976685,0.213949
-34.992954,0.220659
-35.981770,0.226544
-36.998093,0.232672
-37.986855,0.239265
-38.975719,0.245525
-39.991932,0.251461
-40.980801,0.257797
-41.997017,0.264541
-42.985882,0.270529
-43.974697,0.276483
-44.990967,0.283133
-45.979778,0.289479
-46.996048,0.295591
-47.984913,0.301653
-48.973728,0.308215
-49.989998,0.314656
-50.978813,0.320476
-51.995083,0.326992
-52.983894,0.333441
-54.000217,0.339692
-54.989029,0.345608
-55.977844,0.352020
-56.994110,0.358634
-57.982929,0.364545
-58.999199,0.370879
-59.988010,0.377288
-60.976871,0.383484
-61.993145,0.389717
-62.981956,0.395917
-63.998226,0.402529
-64.987038,0.408581
-65.975906,0.414647
-66.992180,0.421220
-67.980995,0.427488
-68.997253,0.433783
-69.986069,0.439846
-70.974884,0.446253
-71.991211,0.452638
-72.980019,0.458636
-73.996292,0.465163
-74.985161,0.471468
-75.973915,0.477547
-76.990234,0.483910
-77.979050,0.490231
-78.995323,0.496684
-79.984192,0.502719
-81.000404,0.509162
-81.989273,0.515382
-82.978142,0.521582
-83.994354,0.528000
-84.983215,0.534252
-85.999489,0.540687
-86.988304,0.546814
-87.977112,0.552980
-88.993439,0.559442
-89.982254,0.565626
-90.998520,0.572053
-91.987381,0.578261
-92.976151,0.584428
-93.992470,0.590834
-94.981339,0.597036
-95.997551,0.603490
-96.986420,0.609636
-97.975182,0.615859
-98.991501,0.622314
-99.980316,0.628494
-100.996635,0.634939
-101.985451,0.641149
-103.001717,0.647538
-103.990585,0.653693
-104.979347,0.659945
-105.995674,0.666451
-106.984535,0.672562
-108.000801,0.678926
-108.989616,0.685208
-109.978432,0.691504
-110.994759,0.697769
-111.983620,0.703910
-112.999840,0.710541
-113.988701,0.716778
-114.977516,0.722831
-115.993790,0.729182
-116.982597,0.735553
-117.998917,0.742133
-118.987793,0.748130
-119.976540,0.754226
-120.992874,0.760825
-121.981682,0.767208
-122.998009,0.773407
-123.986816,0.779456
-124.975624,0.785875
-125.991959,0.792482
-126.980713,0.798496
-127.997040,0.804717
-128.985855,0.811102
-130.002182,0.817747
-130.991043,0.823905
-131.979797,0.829898
-132.996124,0.836415
-133.984924,0.842906
-135.001266,0.849180
-135.990128,0.855148
-136.978897,0.861590
-137.995209,0.868220
-138.984009,0.874180
-140.000351,0.880518
-140.989212,0.887105
-141.977966,0.893274
-142.994293,0.899407
-143.983093,0.905700
-144.999435,0.912441
-145.988190,0.918548
-146.977051,0.924413
-147.993378,0.931159
-148.982193,0.937696
-149.998520,0.943716
-150.987274,0.949823
-151.976135,0.956480
-152.992462,0.962918
-153.981277,0.968696
-154.997604,0.975286
-155.986404,0.981926
-157.002731,0.988107
-157.991592,0.994002
-158.980362,1.000620
-159.996674,1.007301
-160.985504,1.013065
-162.001816,1.019423
-162.990631,1.026204
-163.979446,1.032386
-164.995819,1.038278
-165.984589,1.044671
-167.000900,1.051688
-167.989716,1.057510
-168.978577,1.063307
-169.994904,1.070269
-170.983719,1.076727
-172.000046,1.082618
-172.988800,1.088761
-173.977661,1.095683
-174.993927,1.101872
-175.982803,1.107559
-176.999130,1.114380
-177.987946,1.121104
-178.976807,1.126741
-179.993011,1.132892
-180.981888,1.139862
-181.998260,1.146292
-182.987030,1.151831
-184.003342,1.158410
-184.992157,1.165346
-185.981033,1.171175
-186.997345,1.177138
-187.986160,1.183939
-189.002487,1.190679
-189.991287,1.196201
-190.980164,1.202372
-191.996368,1.209588
-192.985306,1.215736
-194.001617,1.221367
-194.990387,1.227940
-195.979248,1.234912
-196.995514,1.240772
-197.984390,1.246521
-199.000702,1.253708
-199.989532,1.260190
-200.978394,1.265616
-201.994644,1.272089
-202.983521,1.279185
-203.999786,1.285264
-204.988647,1.290804
-206.004990,1.297819
-206.993790,1.304687
-207.982666,1.310091
-208.998932,1.316184
-209.987793,1.323324
-211.004120,1.330006
-211.992920,1.335392
-212.981796,1.341670
-213.998062,1.348895
-214.986923,1.355039
-216.003265,1.360729
-216.992065,1.367478
-217.980942,1.374490
-218.997208,1.380254
-219.986069,1.386035
-221.002350,1.393424
-221.991211,1.399913
-222.980072,1.405259
-223.996338,1.411848
-224.985199,1.419089
-226.001480,1.425193
-226.990341,1.430673
-227.979218,1.437651
-228.995483,1.444781
-229.984344,1.450118
-231.000626,1.456383
-231.989487,1.463744
-233.005737,1.470076
-233.994614,1.475439
-234.983490,1.482233
-235.999741,1.489555
-236.988617,1.495062
-238.004898,1.501010
-238.993744,1.508317
-239.982620,1.514818
-240.998901,1.520325
-241.987823,1.526820
-243.004013,1.534375
-243.992950,1.539934
-244.981827,1.545586
-245.998077,1.553128
-246.986954,1.559771
-248.003220,1.565212
-248.992081,1.571600
-249.980896,1.579043
-250.997223,1.585189
-251.986099,1.590469
-253.002350,1.597763
-253.991226,1.605059
-254.980042,1.610346
-255.996399,1.616279
-256.985291,1.623890
-258.001556,1.630573
-258.990417,1.635620
-260.006683,1.642493
-260.995544,1.650046
-261.984344,1.655633
-263.000671,1.661289
-263.989624,1.668740
-265.005829,1.675773
-265.994751,1.680836
-266.983490,1.687157
-267.999878,1.695139
-268.988739,1.701080
-270.005005,1.706430
-270.993896,1.713539
-271.982666,1.720955
-272.999054,1.726356
-273.987946,1.732113
-275.004181,1.740101
-275.993073,1.746572
-276.981873,1.751445
-277.998230,1.758484
-278.987000,1.766302
-280.003387,1.771842
-280.992279,1.777198
-281.981079,1.784922
-282.997406,1.792201
-283.986206,1.796892
-285.002563,1.803474
-285.991455,1.811399
-287.007721,1.817561
-287.996582,1.822558
-288.985382,1.829875
