2,Lamborghini Huracan GT3 EVO,baseline
Steering Wheel Angle,Yaw Rate
308.090393,1.781640
307.091644,1.784634
306.059570,1.785942
305.060852,1.780720
304.062042,1.776149
303.029999,1.771616
302.031219,1.766922
301.032471,1.762216
300.000427,1.757260
299.001678,1.752256
298.002899,1.747332
296.970825,1.742094
295.972076,1.737023
294.973328,1.731762
293.941254,1.726372
292.942474,1.721054
291.943726,1.715737
290.911652,1.710167
289.912903,1.704729
288.914154,1.699142
287.882080,1.693485
286.883301,1.687009
285.884552,1.680735
284.852478,1.674198
283.853729,1.667770
282.854980,1.661422
281.822876,1.654203
280.824127,1.647085
279.825317,1.640170
278.793304,1.633117
277.794556,1.626227
276.795776,1.619652
275.763702,1.613757
274.764984,1.608048
273.766174,1.602145
272.734131,1.596429
271.735382,1.591526
270.736603,1.586270
269.704529,1.579874
268.705780,1.573984
267.707001,1.568147
266.674927,1.561167
265.676178,1.556065
264.677399,1.550351
263.645355,1.543834
262.646576,1.537612
261.647827,1.531612
260.615753,1.525551
259.617004,1.519868
258.584900,1.513691
257.586182,1.507545
256.587372,1.501545
255.555344,1.495121
254.556549,1.489751
253.557785,1.484228
252.525742,1.477254
251.526947,1.471702
250.528183,1.466019
249.496140,1.459096
248.497330,1.453808
247.498581,1.448107
246.466522,1.441642
245.467773,1.435326
244.468964,1.430112
243.436951,1.424811
242.438156,1.418574
241.439392,1.412181
240.407318,1.405884
239.408585,1.399977
238.409760,1.393787
237.377716,1.387914
236.378922,1.382046
235.380157,1.376282
234.348114,1.369392
233.349335,1.364033
232.350586,1.358501
231.318527,1.352071
230.319733,1.345877
229.320969,1.339902
228.288895,1.333707
227.290115,1.327851
226.291382,1.322267
225.259277,1.316365
224.260529,1.310395
223.261749,1.304536
222.229706,1.298164
221.230927,1.292197
220.232147,1.286074
219.200073,1.280578
218.201324,1.274751
217.202515,1.268603
216.170486,1.262453
215.171677,1.256306
214.172928,1.250613
213.140839,1.244431
212.142090,1.238440
211.143280,1.232698
210.111252,1.226517
209.112442,1.220690
208.113693,1.214996
207.081604,1.208568
206.082840,1.202738
205.050766,1.196763
204.052017,1.190713
203.053238,1.184793
202.021164,1.178981
201.022385,1.172843
200.023605,1.166999
198.991516,1.160961
197.992783,1.155235
196.994003,1.149180
195.961929,1.142933
194.963150,1.137048
193.964371,1.130913
192.932281,1.125197
191.933533,1.119335
190.934753,1.113611
189.902695,1.107420
188.903946,1.101496
187.905136,1.095554
186.873108,1.089421
185.874298,1.083189
184.875549,1.077404
183.843445,1.071149
182.844696,1.065810
181.845901,1.060059
180.813843,1.053824
179.815063,1.047944
178.816269,1.042143
177.784180,1.036013
176.785431,1.029850
175.786636,1.023776
174.754608,1.017501
173.755783,1.011964
172.757034,1.005686
171.724945,0.999986
170.726196,0.993854
169.727371,0.988041
168.695328,0.981933
167.696548,0.976399
166.697769,0.970683
165.665665,0.964584
164.666916,0.958464
163.668106,0.952433
162.636078,0.946139
161.637283,0.940343
160.638535,0.934634
159.606430,0.928425
158.607651,0.922293
157.608841,0.916576
156.576813,0.910607
155.578003,0.904649
154.545944,0.898704
153.547165,0.892959
152.548386,0.887630
151.516296,0.881396
150.517532,0.874892
149.518738,0.869083
148.486664,0.863216
147.487885,0.857152
146.489105,0.851569
145.457016,0.845582
144.458267,0.839713
143.459503,0.833671
142.427399,0.827620
141.428650,0.821444
140.429840,0.815497
139.397781,0.809337
138.399002,0.803407
137.400223,0.797621
136.368118,0.791461
135.369385,0.785768
134.370560,0.779647
133.338501,0.773931
132.339691,0.767807
131.340958,0.762006
130.308853,0.755754
129.310074,0.750115
128.311264,0.744006
127.279228,0.738593
126.280426,0.733001
125.281647,0.727539
124.249550,0.721282
123.250801,0.715197
122.251991,0.708299
121.219940,0.702329
120.221115,0.696939
119.222366,0.691404
118.190239,0.685241
117.191505,0.679111
116.192688,0.672903
115.160629,0.666764
114.161819,0.660884
113.163063,0.654924
112.130974,0.649100
111.132202,0.643529
110.133385,0.637371
109.101326,0.631387
108.102509,0.625196
107.103767,0.619236
106.071671,0.613159
105.072891,0.607422
104.074081,0.601693
103.042015,0.595560
102.043213,0.589712
101.011185,0.583510
100.012398,0.577522
99.013596,0.571589
97.981529,0.565721
96.982719,0.559561
95.983971,0.553896
94.951881,0.547696
93.953102,0.541996
92.954285,0.535829
91.922226,0.529804
90.923409,0.524645
89.924667,0.518888
88.892548,0.513362
87.893791,0.506774
86.894981,0.500636
85.862923,0.494422
84.864113,0.488322
83.865334,0.482692
82.833237,0.476483
81.834457,0.470655
80.835648,0.464737
79.803581,0.458587
78.804771,0.452676
77.806030,0.446862
76.773903,0.440897
75.775154,0.434971
74.776337,0.429231
73.744286,0.423146
72.745476,0.417444
71.746696,0.411759
70.714600,0.405874
69.715820,0.400162
68.717003,0.394636
67.684944,0.388608
66.686142,0.382570
65.687355,0.376373
64.655266,0.369979
63.656487,0.364013
62.657673,0.358198
61.625610,0.352163
60.626797,0.346210
59.628021,0.340523
58.595932,0.334233
57.597145,0.328277
56.598400,0.322334
55.566277,0.316183
54.567528,0.310237
53.568687,0.304342
52.536625,0.298479
51.537811,0.292402
50.505753,0.286680
49.506939,0.280456
48.508160,0.274540
47.476070,0.268519
46.477287,0.262750
45.478477,0.256880
44.446415,0.250654
43.447601,0.245167
42.448826,0.239155
41.416702,0.233351
40.417953,0.227759
39.419140,0.222084
38.387077,0.216348
37.388233,0.210325
36.389488,0.204661
35.357365,0.198434
34.358585,0.192198
33.359772,0.186225
32.327709,0.180040
31.328901,0.174142
30.330120,0.167843
29.297997,0.161938
28.299248,0.156040
27.300406,0.150186
26.268345,0.143973
25.269531,0.138516
24.270754,0.132617
23.238661,0.126545
22.239880,0.120880
21.241070,0.115210
20.209009,0.109539
19.210163,0.103565
18.211416,0.097742
17.179293,0.091688
16.180511,0.085740
15.181702,0.079652
14.149640,0.073336
13.150796,0.067322
12.152049,0.061239
11.119988,0.055114
10.121144,0.049843
9.122396,0.044902
8.090272,0.039872
7.091493,0.034984
6.092681,0.030099
5.060620,0.024969
4.061809,0.020094
3.062997,0.015189
2.030904,0.010156
1.032093,0.005200
0.000000,0.001532
-0.998747,0.004710
-1.997624,0.009617
-3.029652,0.014682
-4.028464,0.019644
-5.027276,0.024473
-6.059368,0.029564
-7.058115,0.034447
-8.056992,0.039336
-9.089020,0.044404
-10.087896,0.049300
-11.086643,0.055495
-12.118735,0.061455
-13.117547,0.067119
-14.116360,0.072904
-15.148452,0.078689
-16.147263,0.084286
-17.146011,0.089909
-18.178169,0.095816
-19.176916,0.102011
-20.175728,0.107959
-21.207819,0.114270
-22.206633,0.120292
-23.205444,0.126337
-24.237535,0.132323
-25.236284,0.138322
-26.235159,0.144275
-27.267187,0.150459
-28.266064,0.156449
-29.264811,0.162020
-30.296968,0.168380
-31.295717,0.174135
-32.294464,0.180089
-33.326618,0.186201
-34.325367,0.191972
-35.324245,0.197754
-36.356274,0.203683
-37.355083,0.209450
-38.353897,0.214980
-39.385986,0.220759
-40.384800,0.226576
-41.383614,0.232405
-42.415703,0.238280
-43.414516,0.244266
-44.413265,0.250360
-45.445419,0.256673
-46.444168,0.262664
-47.443043,0.268580
-48.475071,0.274431
-49.473949,0.279842
-50.472694,0.285798
-51.504852,0.292097
-52.503601,0.298077
-53.535759,0.304304
-54.534504,0.310315
-55.533318,0.316036
-56.565411,0.322172
-57.564224,0.328364
-58.563034,0.334540
-59.595127,0.340536
-60.593937,0.346487
-61.592751,0.352435
-62.624840,0.358448
-63.623653,0.364033
-64.622467,0.370154
-65.654556,0.376072
-66.653366,0.381946
-67.652184,0.387857
-68.684273,0.393773
-69.683090,0.399740
-70.681831,0.405700
-71.713989,0.411817
-72.712738,0.417710
-73.711617,0.423540
-74.743645,0.429577
-75.742516,0.435472
-76.741264,0.441352
-77.773361,0.447353
-78.772171,0.453377
-79.770981,0.459107
-80.803070,0.464972
-81.801888,0.470879
-82.800697,0.476775
-83.832787,0.482779
-84.831604,0.488163
-85.830414,0.493931
-86.862572,0.499897
-87.861313,0.505487
-88.860130,0.511603
-89.892227,0.517894
-90.891098,0.523961
-91.889847,0.529894
-92.921997,0.536162
-93.920753,0.541988
-94.919624,0.547952
-95.951653,0.554176
-96.950531,0.560149
-97.949280,0.566147
-98.981438,0.572228
-99.980179,0.578052
-100.979065,0.583819
-102.011093,0.589966
-103.009964,0.595646
-104.008705,0.601239
-105.040863,0.606948
-106.039619,0.612766
-107.071777,0.618475
-108.070587,0.624525
-109.069389,0.630545
-110.101486,0.637506
-111.100304,0.643477
-112.099113,0.649295
-113.131271,0.655087
-114.130020,0.661017
-115.128899,0.667168
-116.160927,0.673007
-117.159798,0.678942
-118.158554,0.684828
-119.190704,0.690680
-120.189453,0.696732
-121.188255,0.702859
-122.220421,0.708829
-123.219162,0.714847
-124.218033,0.720618
-125.250061,0.726572
-126.248947,0.732219
-127.247688,0.738106
-128.279846,0.744178
-129.278656,0.750264
-130.277481,0.756291
-131.309555,0.762516
-132.308380,0.768349
-133.307190,0.774062
-134.339355,0.780428
-135.338089,0.786109
-136.336975,0.792134
-137.369003,0.797731
-138.367874,0.803502
-139.366684,0.808716
-140.398773,0.814652
-141.397583,0.820913
-142.396408,0.827276
-143.428497,0.833614
-144.427368,0.839589
-145.426117,0.845351
-146.458282,0.851250
-147.457077,0.856974
-148.455902,0.863012
-149.487991,0.869096
-150.486877,0.875072
-151.485611,0.881136
-152.517776,0.887152
-153.516525,0.892960
-154.515396,0.898967
-155.547485,0.905212
-156.546295,0.911007
-157.578400,0.917056
-158.577271,0.922797
-159.576004,0.928693
-160.608170,0.934969
-161.606918,0.940871
-162.605804,0.946779
-163.637894,0.952923
-164.636765,0.958388
-165.635513,0.964144
-166.667603,0.970442
-167.666428,0.976499
-168.665222,0.982374
-169.697372,0.988734
-170.696136,0.994598
-171.695007,1.000080
-172.727097,1.006173
-173.725922,1.012458
-174.724731,1.017987
-175.756882,1.024287
-176.755630,1.030135
-177.754501,1.035777
-178.786606,1.042298
-179.785477,1.047867
-180.784225,1.052940
-181.816376,1.059166
-182.815125,1.065290
-183.813995,1.072036
-184.846100,1.077910
-185.844971,1.083232
-186.843719,1.088447
-187.875870,1.095212
-188.874695,1.101910
-189.873505,1.107365
-190.905594,1.113516
-191.904465,1.118352
-192.903214,1.124656
-193.935364,1.131057
-194.934189,1.137103
-195.933060,1.143412
-196.965088,1.149221
-197.963959,1.154214
-198.962769,1.160419
-199.994934,1.166846
-200.993683,1.172839
-201.992554,1.178880
-203.024643,1.185010
-204.023468,1.190786
-205.022263,1.196675
-206.054428,1.202767
-207.053177,1.208677
-208.085403,1.214800
-209.084137,1.220774
-210.082886,1.226506
-211.115112,1.232902
-212.113861,1.238803
-213.112732,1.244762
-214.144836,1.250881
-215.143646,1.256572
-216.142456,1.262313
-217.174606,1.268789
-218.173355,1.274898
-219.172241,1.280663
-220.204330,1.286767
-221.203201,1.292634
-222.201950,1.298478
-223.234177,1.304674
-224.232925,1.310399
-225.231796,1.316174
-226.263885,1.322229
-227.262772,1.328132
-228.261505,1.333952
-229.293671,1.340312
-230.292496,1.346196
-231.291367,1.352155
-232.323380,1.358168
-233.322250,1.363916
-234.321075,1.369805
-235.353226,1.376089
-236.351990,1.381993
-237.350861,1.388071
-238.382965,1.394005
-239.381836,1.399817
-240.380569,1.405924
-241.412811,1.412062
-242.411545,1.417982
-243.410416,1.424103
-244.442505,1.429887
-245.441391,1.435625
-246.440125,1.441830
-247.472305,1.448200
-248.471100,1.453803
-249.469971,1.459038
-250.502060,1.465835
-251.500946,1.472219
-252.499710,1.477063
-253.531860,1.483276
-254.530670,1.489365
-255.529404,1.496174
-256.561554,1.501078
-257.560394,1.506518
-258.559265,1.512864
-259.591339,1.519626
-260.590240,1.526043
-261.622253,1.531825
-262.621124,1.537279
-263.619934,1.543263
-264.652100,1.549327
-265.650909,1.555682
-266.649780,1.561469
-267.681824,1.567403
-268.680695,1.573126
-269.679504,1.579108
-270.711670,1.585291
-271.710449,1.591360
-272.709351,1.597195
-273.741425,1.603421
-274.740295,1.609571
-275.739075,1.615186
-276.771210,1.621213
-277.770050,1.627254
-278.768921,1.633514
-279.800995,1.639939
-280.799866,1.645075
-281.798615,1.650365
-282.830841,1.656482
-283.829590,1.663659
-284.828461,1.669665
-285.860565,1.674935
-286.859436,1.680291
-287.858246,1.686990
-288.890411,1.693747
-289.889130,1.699345
-290.888000,1.705095
-291.920105,1.710258
-292.918976,1.716146
-293.917816,1.722789
-294.949951,1.729165
-295.948761,1.735198
-296.947662,1.741078
-297.979736,1.747184
-298.978485,1.753085
-299.977356,1.758931
-301.009460,1.765459
-302.008331,1.771173
-303.007141,1.777022
-304.039307,1.783143
-305.038116,1.789017
-306.036987,1.794677
-307.069031,1.795074
-308.067963,1.795781
