2,Mercedes W12,baseline
Steering Wheel Angle,Yaw Rate
209.020386,1.506642
208.004135,1.498547
207.015366,1.491369
206.026566,1.484377
205.010300,1.477103
204.021530,1.470026
203.005295,1.462762
202.016510,1.455607
201.000275,1.448120
200.011475,1.440806
199.022705,1.433498
198.006454,1.425946
197.017670,1.418582
196.001419,1.410878
195.012619,1.403214
194.023849,1.395908
193.007599,1.388200
192.018814,1.380835
191.002563,1.373340
190.013794,1.366223
189.024994,1.359097
188.008728,1.351393
187.019974,1.344060
186.003708,1.336594
185.014938,1.329497
184.026154,1.322209
183.009888,1.314416
182.021133,1.307251
181.004852,1.299833
180.016098,1.292411
178.999817,1.284912
178.011047,1.277564
177.022247,1.270285
176.005981,1.262847
175.017227,1.255786
174.000961,1.248338
173.012192,1.240971
172.023392,1.233632
171.007111,1.226131
170.018356,1.219116
169.002075,1.211567
168.013321,1.204267
167.024506,1.197004
166.008270,1.189495
165.019485,1.182378
164.003220,1.174829
163.014450,1.167573
162.025650,1.160341
161.009415,1.153051
160.020615,1.145842
159.004333,1.138373
158.015564,1.131237
157.026764,1.124002
156.010544,1.116507
155.021729,1.109413
154.005478,1.101951
153.016708,1.094614
152.000443,1.087294
151.011673,1.080139
150.022858,1.073011
149.006622,1.065426
148.017822,1.058348
147.001556,1.050859
146.012772,1.043631
145.023972,1.036473
144.007736,1.029000
143.018936,1.021998
142.002655,1.014558
141.013901,1.007316
140.025085,1.000152
139.008850,0.992653
138.020050,0.985562
137.003769,0.978277
136.014999,0.971042
135.026199,0.963830
134.009964,0.956626
133.021164,0.949490
132.004913,0.942027
131.016113,0.934945
130.027283,0.927808
129.011078,0.920351
128.022263,0.913269
127.006020,0.905907
126.017204,0.898759
125.000938,0.891391
124.012169,0.884261
123.023369,0.877039
122.007118,0.869694
121.018311,0.862684
120.002029,0.855377
119.013283,0.848099
118.024460,0.840960
117.008224,0.833595
116.019402,0.826507
115.003166,0.819213
114.014351,0.811946
113.025566,0.804854
112.009323,0.797661
111.020508,0.790626
110.004265,0.783139
109.015457,0.776043
108.026642,0.768948
107.010399,0.761655
106.021584,0.754427
105.005371,0.747242
104.016556,0.740251
103.027771,0.733017
102.011497,0.725729
101.022690,0.718572
100.006439,0.711424
99.017632,0.704211
98.001389,0.696913
97.012573,0.689869
96.023758,0.682852
95.007515,0.675479
94.018700,0.668365
93.002457,0.660984
92.013649,0.654141
91.024887,0.647052
90.008591,0.639607
89.019775,0.632537
88.003563,0.625289
87.014717,0.618241
86.025963,0.611218
85.009674,0.603921
84.020859,0.596847
83.004631,0.589451
82.015800,0.582450
81.027039,0.575443
80.010742,0.568120
79.021935,0.561009
78.005684,0.553884
77.016876,0.546774
76.000633,0.539532
75.011818,0.532455
74.023056,0.525457
73.006760,0.518041
72.017944,0.511085
71.001701,0.503613
70.012894,0.496769
69.024109,0.489806
68.007835,0.482508
67.018997,0.475357
66.002754,0.468126
65.013939,0.461067
64.025177,0.454084
63.008881,0.446864
62.020069,0.439826
61.003826,0.432430
60.015011,0.425532
59.026226,0.418500
58.009926,0.411206
57.021172,0.404316
56.004875,0.396994
55.016060,0.389752
54.027275,0.382638
53.011005,0.375652
52.022217,0.368719
51.005924,0.361308
50.017109,0.354296
49.000866,0.347176
48.012054,0.340171
47.023270,0.333130
46.006969,0.325880
45.018211,0.318787
44.001915,0.311490
43.013073,0.304533
42.024315,0.297536
41.008018,0.290321
40.019230,0.283186
39.002964,0.276055
38.014122,0.268977
37.025364,0.261938
36.009068,0.254751
35.020279,0.247805
34.003983,0.240524
33.015167,0.233635
32.026382,0.226539
31.010088,0.219188
30.021326,0.212214
29.005032,0.205187
28.016247,0.198206
27.027433,0.191144
26.011137,0.183838
25.022348,0.176799
24.006052,0.169680
23.017294,0.162668
22.000998,0.155365
21.012157,0.148360
20.023371,0.141372
19.007101,0.134152
18.018314,0.127025
17.002018,0.119919
16.013233,0.112996
15.024419,0.106015
14.008123,0.098782
13.019336,0.091661
12.003040,0.084440
11.014254,0.077355
10.025441,0.070444
9.009144,0.063287
8.020358,0.056116
7.004062,0.048898
6.015275,0.041996
5.026462,0.034982
4.010166,0.027743
3.021353,0.020775
2.005083,0.013551
1.016323,0.006515
0.000000,0.001371
-0.988760,0.007259
-1.977626,0.014519
-2.993896,0.021734
-3.982709,0.028694
-4.998979,0.035783
-5.987792,0.042862
-6.976604,0.049847
-7.992875,0.057114
-8.981688,0.064093
-9.997957,0.071261
-10.986771,0.078410
-11.975583,0.085383
-12.991853,0.092414
-13.980665,0.099529
-14.996989,0.106871
-15.985749,0.113899
-16.974613,0.120813
-17.990831,0.128021
-18.979698,0.135050
-19.995966,0.142288
-20.984779,0.149374
-21.973593,0.156367
-22.989862,0.163335
-23.978676,0.170343
-24.994999,0.177620
-25.983759,0.184619
-27.000082,0.191898
-27.988842,0.198841
-28.977654,0.205851
-29.993923,0.213118
-30.982737,0.220143
-31.999060,0.227397
-32.987873,0.234322
-33.976685,0.241310
-34.992954,0.248579
-35.981770,0.255674
-36.998093,0.262773
-37.986855,0.269778
-38.975719,0.276859
-39.991932,0.284134
-40.980801,0.291080
-41.997017,0.298401
-42.985882,0.305434
-43.974697,0.312409
-44.990967,0.319564
-45.979778,0.326632
-46.996048,0.333805
-47.984913,0.340879
-48.973728,0.347977
-49.989998,0.355111
-50.978813,0.362075
-51.995083,0.369436
-52.983894,0.376486
-54.000217,0.383647
-54.989029,0.390661
-55.977844,0.397703
-56.994110,0.404967
-57.982929,0.412050
-58.999199,0.419295
-59.988010,0.426365
-60.976871,0.433336
-61.993145,0.440474
-62.981956,0.447527
-63.998226,0.454821
-64.987038,0.461943
-65.975906,0.469056
-66.992180,0.476241
-67.980995,0.483217
-68.997253,0.490422
-69.986069,0.497500
-70.974884,0.504588
-71.991211,0.511865
-72.980019,0.518869
-73.996292,0.526137
-74.985161,0.533194
-75.973915,0.540222
-76.990234,0.547454
-77.979050,0.554590
-78.995323,0.561843
-79.984192,0.568850
-81.000404,0.576147
-81.989273,0.583208
-82.978142,0.590281
-83.994354,0.597550
-84.983215,0.604566
-85.999489,0.611910
-86.988304,0.619106
-87.977112,0.626055
-88.993439,0.633253
-89.982254,0.640336
-90.998520,0.647687
-91.987381,0.654733
-92.976151,0.661754
-93.992470,0.669071
-94.981339,0.676192
-95.997551,0.683578
-96.986420,0.690576
-97.975182,0.697710
-98.991501,0.704907
-99.980316,0.712008
-100.996635,0.719265
-101.985451,0.726413
-103.001717,0.733943
-103.990585,0.740851
-104.979347,0.747886
-105.995674,0.755195
-106.984535,0.762358
-108.000801,0.769657
-108.989616,0.776764
-109.978432,0.783827
-110.994759,0.791265
-111.983620,0.798309
-112.999840,0.805573
-113.988701,0.812748
-114.977516,0.819878
-115.993790,0.827269
-116.982597,0.834419
-117.998917,0.841566
-118.987793,0.848713
-119.976540,0.855903
-120.992874,0.863245
-121.981682,0.870503
-122.998009,0.877654
-123.986816,0.884860
-124.975624,0.891934
-125.991959,0.899215
-126.980713,0.906403
-127.997040,0.913901
-128.985855,0.921038
-130.002182,0.928339
-130.991043,0.935468
-131.979797,0.942659
-132.996124,0.950137
-133.984924,0.957197
-135.001266,0.964571
-135.990128,0.971748
-136.978897,0.978933
-137.995209,0.986222
-138.984009,0.993360
-140.000351,1.000862
-140.989212,1.008042
-141.977966,1.015136
-142.994293,1.022494
-143.983093,1.029752
-144.999435,1.037089
-145.988190,1.044408
-146.977051,1.051603
-147.993378,1.058841
-148.982193,1.066062
-149.998520,1.073496
-150.987274,1.080676
-151.976135,1.087924
-152.992462,1.095449
-153.981277,1.102462
-154.997604,1.109996
-155.986404,1.117225
-157.002731,1.124716
-157.991592,1.132020
-158.980362,1.139249
-159.996674,1.146773
-160.985504,1.153905
-162.001816,1.161293
-162.990631,1.168539
-163.979446,1.175815
-164.995819,1.183224
-165.984589,1.190428
-167.000900,1.197938
-167.989716,1.205224
-168.978577,1.212469
-169.994904,1.219828
-170.983719,1.227098
-172.000046,1.234579
-172.988800,1.241872
-173.977661,1.249092
-174.993927,1.256615
-175.982803,1.263793
-176.999130,1.271287
-177.987946,1.278656
-178.976807,1.286038
-179.993011,1.293593
-180.981888,1.300723
-181.998260,1.308386
-182.987030,1.315674
-184.003342,1.323135
-184.992157,1.330453
-185.981033,1.337758
-186.997345,1.345365
-187.986160,1.352736
-189.002487,1.360109
-189.991287,1.367240
-190.980164,1.374681
-191.996368,1.382134
-192.985306,1.389431
-194.001617,1.397059
-194.990387,1.404305
-195.979248,1.411701
-196.995514,1.419571
-197.984390,1.427201
-199.000702,1.434679
-199.989532,1.441857
-200.978394,1.449135
-201.994644,1.456629
-202.983521,1.463869
-203.999786,1.471550
-204.988647,1.478721
-206.004990,1.486526
-206.993790,1.493983
-207.982666,1.501040
-208.998932,1.508692
