2,Modified - Tour,baseline
Steering Wheel Angle,Yaw Rate
270.022430,1.842703
269.006195,1.846008
268.017395,1.825214
267.001190,1.825704
266.012421,1.829261
265.023651,1.830130
264.007385,1.826831
263.018616,1.816822
262.002350,1.808201
261.013611,1.799882
260.024841,1.791096
259.008575,1.777124
258.019806,1.773264
257.003571,1.764349
256.014801,1.756502
254.998566,1.749420
254.009781,1.741561
253.021011,1.733240
252.004791,1.726228
251.015961,1.717721
249.999741,1.710250
249.010956,1.702703
248.022217,1.695610
247.005966,1.686721
246.017166,1.679495
245.000916,1.671150
244.012177,1.664436
243.023422,1.656005
242.007141,1.647884
241.018341,1.641233
240.002121,1.632429
239.013351,1.625743
238.024597,1.617190
237.008316,1.609589
236.019547,1.602760
235.003296,1.594718
234.014542,1.586582
233.025772,1.578926
232.009491,1.570820
231.020752,1.564255
230.004471,1.555561
229.015686,1.548426
227.999451,1.539792
227.010681,1.532275
226.021896,1.525586
225.005646,1.517078
224.016876,1.509599
223.000626,1.501901
222.011841,1.494859
221.023071,1.486995
220.006836,1.479168
219.018051,1.472303
218.001816,1.463619
217.013016,1.456424
216.024261,1.449151
215.007996,1.440883
214.019226,1.433609
213.002960,1.425703
212.014175,1.418024
211.025421,1.410604
210.009140,1.403185
209.020386,1.395973
208.004135,1.388495
207.015366,1.380872
206.026566,1.373695
205.010300,1.366076
204.021530,1.358121
203.005295,1.351108
202.016510,1.343982
201.000275,1.335337
200.011475,1.328384
199.022705,1.321643
198.006454,1.314153
197.017670,1.306128
196.001419,1.298967
195.012619,1.291386
194.023849,1.283986
193.007599,1.276899
192.018814,1.270069
191.002563,1.261772
190.013794,1.255132
189.024994,1.247989
188.008728,1.240643
187.019974,1.232815
186.003708,1.225471
185.014938,1.218970
184.026154,1.211360
183.009888,1.203682
182.021133,1.196864
181.004852,1.189165
180.016098,1.182040
178.999817,1.175220
178.011047,1.168184
177.022247,1.160800
176.005981,1.153996
175.017227,1.146663
174.000961,1.139465
173.012192,1.132774
172.023392,1.125495
171.007111,1.118500
170.018356,1.111052
169.002075,1.103878
168.013321,1.097855
167.024506,1.090946
166.008270,1.083205
165.019485,1.076767
164.003220,1.069141
163.014450,1.062811
162.025650,1.055931
161.009415,1.049045
160.020615,1.041873
159.004333,1.035412
158.015564,1.028220
157.026764,1.021958
156.010544,1.015036
155.021729,1.007988
154.005478,1.001530
153.016708,0.994570
152.000443,0.988215
151.011673,0.979225
150.022858,0.972259
149.006622,0.964507
148.017822,0.957413
147.001556,0.950847
146.012772,0.943378
145.023972,0.937286
144.007736,0.930219
143.018936,0.922653
142.002655,0.915311
141.013901,0.908877
140.025085,0.901327
139.008850,0.894447
138.020050,0.887322
137.003769,0.880288
136.014999,0.874508
135.026199,0.865703
134.009964,0.859065
133.021164,0.852571
132.004913,0.844913
131.016113,0.837472
130.027283,0.830323
129.011078,0.822305
128.022263,0.816490
127.006020,0.810308
126.017204,0.794310
125.000938,0.782973
124.012169,0.777847
123.023369,0.772745
122.007118,0.767754
121.018311,0.762274
120.002029,0.757423
119.013283,0.752702
118.024460,0.747836
117.008224,0.742957
116.019402,0.738031
115.003166,0.733178
114.014351,0.728339
113.025566,0.723529
112.009323,0.718576
111.020508,0.713769
110.004265,0.708840
109.015457,0.703962
108.026642,0.699076
107.010399,0.694149
106.021584,0.689325
105.005371,0.684458
104.016556,0.679630
103.027771,0.674816
102.011497,0.669836
101.022690,0.665036
100.006439,0.660078
99.017632,0.655174
98.001389,0.650274
97.012573,0.645478
96.023758,0.640599
95.007515,0.635724
94.018700,0.630826
93.002457,0.625929
92.013649,0.621081
91.024887,0.616310
90.008591,0.611395
89.019775,0.606488
88.003563,0.601445
87.014717,0.596612
86.025963,0.591877
85.009674,0.586888
84.020859,0.582093
83.004631,0.577003
82.015800,0.572202
81.027039,0.567457
80.010742,0.562373
79.021935,0.557636
78.005684,0.552617
77.016876,0.547731
76.000633,0.542802
75.011818,0.538035
74.023056,0.533029
73.006760,0.528130
72.017944,0.523238
71.001701,0.518279
70.012894,0.513484
69.024109,0.508545
68.007835,0.503681
67.018997,0.498720
66.002754,0.493842
65.013939,0.488884
64.025177,0.484035
63.008881,0.478996
62.020069,0.474083
61.003826,0.469219
60.015011,0.464289
59.026226,0.459501
58.009926,0.454501
57.021172,0.449612
56.004875,0.444616
55.016060,0.439745
54.027275,0.434873
53.011005,0.429938
52.022217,0.425029
51.005924,0.419999
50.017109,0.415222
49.000866,0.410291
48.012054,0.405365
47.023270,0.400615
46.006969,0.395648
45.018211,0.390818
44.001915,0.385871
43.013073,0.380964
42.024315,0.376242
41.008018,0.371271
40.019230,0.366395
39.002964,0.361508
38.014122,0.356685
37.025364,0.351915
36.009068,0.347046
35.020279,0.342135
34.003983,0.337219
33.015167,0.332404
32.026382,0.327627
31.010088,0.322614
30.021326,0.317884
29.005032,0.312954
28.016247,0.308151
27.027433,0.303221
26.011137,0.298382
25.022348,0.293557
24.006052,0.288634
23.017294,0.283896
22.000998,0.279067
21.012157,0.273905
20.023371,0.269374
19.007101,0.264495
18.018314,0.259702
17.002018,0.254907
16.013233,0.250004
15.024419,0.245211
14.008123,0.240322
13.019336,0.235638
12.003040,0.230810
11.014254,0.225804
10.025441,0.221128
9.009144,0.216257
8.020358,0.211458
7.004062,0.206614
6.015275,0.201699
5.026462,0.196978
4.010166,0.192141
3.021353,0.187390
2.005083,0.182466
1.016323,0.177686
0.000000,0.172823
-0.988760,0.168101
-1.977626,0.163266
-2.993896,0.158416
-3.982709,0.153737
-4.998979,0.148703
-5.987792,0.143982
-6.976604,0.139240
-7.992875,0.134283
-8.981688,0.128491
-9.997957,0.123700
-10.986771,0.118803
-11.975583,0.114078
-12.991853,0.109156
-13.980665,0.104234
-14.996989,0.099275
-15.985749,0.094442
-16.974613,0.089604
-17.990831,0.061286
-18.979698,0.053153
-19.995966,0.046045
-20.984779,0.039308
-21.973593,0.032426
-22.989862,0.024913
-23.978676,0.017725
-24.994999,0.010779
-25.983759,0.005054
-27.000082,0.001947
-27.988842,0.008760
-28.977654,0.015569
-29.993923,0.024562
-30.982737,0.030621
-31.999060,0.036775
-32.987873,0.043738
-33.976685,0.051228
-34.992954,0.058724
-35.981770,0.065928
-36.998093,0.072578
-37.986855,0.081187
-38.975719,0.087686
-39.991932,0.095113
-40.980801,0.104039
-41.997017,0.110694
-42.985882,0.116784
-43.974697,0.123031
-44.990967,0.130065
-45.979778,0.136624
-46.996048,0.143350
-47.984913,0.150026
-48.973728,0.157299
-49.989998,0.164032
-50.978813,0.170600
-51.995083,0.178086
-52.983894,0.184635
-54.000217,0.191653
-54.989029,0.198674
-55.977844,0.205661
-56.994110,0.212601
-57.982929,0.219661
-58.999199,0.227337
-59.988010,0.233958
-60.976871,0.240939
-61.993145,0.248392
-62.981956,0.255397
-63.998226,0.262424
-64.987038,0.269768
-65.975906,0.276760
-66.992180,0.284439
-67.980995,0.291388
-68.997253,0.299102
-69.986069,0.305982
-70.974884,0.313072
-71.991211,0.320412
-72.980019,0.327805
-73.996292,0.335387
-74.985161,0.342833
-75.973915,0.350263
-76.990234,0.357527
-77.979050,0.365428
-78.995323,0.372507
-79.984192,0.379926
-81.000404,0.388010
-81.989273,0.395099
-82.978142,0.402137
-83.994354,0.409864
-84.983215,0.417357
-85.999489,0.425195
-86.988304,0.432655
-87.977112,0.440304
-88.993439,0.447723
-89.982254,0.455549
-90.998520,0.463136
-91.987381,0.470682
-92.976151,0.478663
-93.992470,0.486043
-94.981339,0.494155
-95.997551,0.502131
-96.986420,0.509464
-97.975182,0.517077
-98.991501,0.525158
-99.980316,0.532440
-100.996635,0.540512
-101.985451,0.548605
-103.001717,0.556286
-103.990585,0.564006
-104.979347,0.571986
-105.995674,0.579713
-106.984535,0.587902
-108.000801,0.596036
-108.989616,0.603265
-109.978432,0.611108
-110.994759,0.619419
-111.983620,0.627189
-112.999840,0.635550
-113.988701,0.643564
-114.977516,0.651341
-115.993790,0.659194
-116.982597,0.666644
-117.998917,0.674778
-118.987793,0.682764
-119.976540,0.690461
-120.992874,0.698767
-121.981682,0.707101
-122.998009,0.715607
-123.986816,0.723595
-124.975624,0.731066
-125.991959,0.740025
-126.980713,0.747650
-127.997040,0.755611
-128.985855,0.764039
-130.002182,0.771976
-130.991043,0.779911
-131.979797,0.787895
-132.996124,0.796025
-133.984924,0.803900
-135.001266,0.812071
-135.990128,0.820136
-136.978897,0.828413
-137.995209,0.836499
-138.984009,0.844642
-140.000351,0.852954
-140.989212,0.861343
-141.977966,0.869559
-142.994293,0.877665
-143.983093,0.885553
-144.999435,0.893798
-145.988190,0.902264
-146.977051,0.910396
-147.993378,0.918630
-148.982193,0.926626
-149.998520,0.935470
-150.987274,0.943783
-151.976135,0.952175
-152.992462,0.960905
-153.981277,0.969122
-154.997604,0.977314
-155.986404,0.986075
-157.002731,0.994055
-157.991592,1.002395
-158.980362,1.010729
-159.996674,1.019295
-160.985504,1.027014
-162.001816,1.036474
-162.990631,1.044348
-163.979446,1.052467
-164.995819,1.061212
-165.984589,1.069100
-167.000900,1.077828
-167.989716,1.086203
-168.978577,1.093945
-169.994904,1.102824
-170.983719,1.110736
-172.000046,1.119012
-172.988800,1.127660
-173.977661,1.136533
-174.993927,1.145581
-175.982803,1.152885
-176.999130,1.161713
-177.987946,1.170837
-178.976807,1.178624
-179.993011,1.187534
-180.981888,1.195469
-181.998260,1.204274
-182.987030,1.212066
-184.003342,1.220711
-184.992157,1.229794
-185.981033,1.237393
-186.997345,1.245856
-187.986160,1.254426
-189.002487,1.263053
-189.991287,1.272246
-190.980164,1.279948
-191.996368,1.288336
-192.985306,1.296667
-194.001617,1.305668
-194.990387,1.313886
-195.979248,1.323014
-196.995514,1.331778
-197.984390,1.340178
-199.000702,1.348482
-199.989532,1.357485
-200.978394,1.365170
-201.994644,1.374280
-202.983521,1.382420
-203.999786,1.390971
-204.988647,1.400104
-206.004990,1.408864
-206.993790,1.417482
-207.982666,1.425812
-208.998932,1.433988
-209.987793,1.442827
-211.004120,1.451454
-211.992920,1.459629
-212.981796,1.468776
-213.998062,1.477845
-214.986923,1.485550
-216.003265,1.494662
-216.992065,1.503228
-217.980942,1.511552
-218.997208,1.520016
-219.986069,1.528969
-221.002350,1.537850
-221.991211,1.546375
-222.980072,1.554768
-223.996338,1.563743
-224.985199,1.571839
-226.001480,1.581001
-226.990341,1.589481
-227.979218,1.597882
-228.995483,1.606893
-229.984344,1.615536
-231.000626,1.623560
-231.989487,1.632451
-233.005737,1.641005
-233.994614,1.649506
-234.983490,1.657976
-235.999741,1.667209
-236.988617,1.675768
-238.004898,1.684839
-238.993744,1.693527
-239.982620,1.701850
-240.998901,1.710464
-241.987823,1.719538
-243.004013,1.727959
-243.992950,1.736663
-244.981827,1.744891
-245.998077,1.754714
-246.986954,1.762067
-248.003220,1.771457
-248.992081,1.780053
-249.980896,1.788705
-250.997223,1.797686
-251.986099,1.806005
-253.002350,1.815263
-253.991226,1.823364
-254.980042,1.832590
-255.996399,1.840920
-256.985291,1.849606
-258.001556,1.858759
-258.990417,1.867153
-260.006683,1.875432
-260.995544,1.884720
-261.984344,1.893091
-263.000671,1.902151
-263.989624,1.911137
-265.005829,1.919543
-265.994751,1.928075
-266.983490,1.937113
-267.999878,1.945753
-268.988739,1.954244
-270.005005,1.963298
