2,NASCAR Ford Mustang,chicago
Steering Wheel Angle,Yaw Rate
316.000183,2.117888
315.011414,2.109585
314.022675,2.107253
313.006470,2.105485
312.017700,2.103704
311.001404,2.101137
310.012665,2.098287
309.023926,2.094400
308.007690,2.088943
307.018921,2.082282
306.002686,2.075584
305.013916,2.069163
303.997681,2.062486
303.008911,2.056056
302.020142,2.049011
301.003906,2.039449
300.015137,2.028652
298.998901,2.016370
298.010132,2.009604
297.021332,2.002234
296.005127,1.994875
295.016357,1.989831
294.000153,1.987679
293.011322,1.980704
292.022583,1.973999
291.006378,1.966961
290.017578,1.958525
289.001343,1.951310
288.012573,1.946157
287.023834,1.939196
286.007568,1.932178
285.018768,1.924856
284.002563,1.918182
283.013824,1.911622
281.997528,1.904329
281.008789,1.896939
280.020020,1.890636
279.003784,1.884166
278.014984,1.877021
276.998779,1.869413
276.010010,1.863612
275.021179,1.856766
274.005005,1.849511
273.016235,1.842317
271.999969,1.835421
271.011169,1.829145
270.022430,1.822123
269.006195,1.814957
268.017395,1.808320
267.001190,1.801166
266.012421,1.793893
265.023651,1.787715
264.007385,1.780802
263.018616,1.774276
262.002350,1.767014
261.013611,1.759710
260.024841,1.752855
259.008575,1.746415
258.019806,1.740235
257.003571,1.733058
256.014801,1.725965
254.998566,1.719424
254.009781,1.712487
253.021011,1.705578
252.004791,1.698717
251.015961,1.691900
249.999741,1.684387
249.010956,1.677633
248.022217,1.670585
247.005966,1.663747
246.017166,1.657516
245.000916,1.650835
244.012177,1.643891
243.023422,1.636840
242.007141,1.629520
241.018341,1.622586
240.002121,1.616177
239.013351,1.609429
238.024597,1.603436
237.008316,1.596621
236.019547,1.589225
235.003296,1.582440
234.014542,1.575748
233.025772,1.568528
232.009491,1.561956
231.020752,1.555696
230.004471,1.548606
229.015686,1.541848
227.999451,1.534498
227.010681,1.527444
226.021896,1.520984
225.005646,1.514266
224.016876,1.507540
223.000626,1.500700
222.011841,1.493465
221.023071,1.486565
220.006836,1.479516
219.018051,1.472839
218.001816,1.465617
217.013016,1.459259
216.024261,1.452667
215.007996,1.445360
214.019226,1.439342
213.002960,1.432634
212.014175,1.425949
211.025421,1.418283
210.009140,1.411086
209.020386,1.404940
208.004135,1.397970
207.015366,1.391102
206.026566,1.384049
205.010300,1.377311
204.021530,1.370809
203.005295,1.363928
202.016510,1.357612
201.000275,1.350415
200.011475,1.343287
199.022705,1.336326
198.006454,1.330160
197.017670,1.323423
196.001419,1.316823
195.012619,1.309596
194.023849,1.302652
193.007599,1.295850
192.018814,1.289485
191.002563,1.282311
190.013794,1.275885
189.024994,1.269208
188.008728,1.262353
187.019974,1.255804
186.003708,1.248845
185.014938,1.242212
184.026154,1.235474
183.009888,1.228577
182.021133,1.221633
181.004852,1.215051
180.016098,1.208260
178.999817,1.201438
178.011047,1.194506
177.022247,1.187745
176.005981,1.180881
175.017227,1.173734
174.000961,1.166740
173.012192,1.160144
172.023392,1.153179
171.007111,1.146639
170.018356,1.139905
169.002075,1.132623
168.013321,1.125877
167.024506,1.119345
166.008270,1.112407
165.019485,1.105778
164.003220,1.099554
163.014450,1.092932
162.025650,1.086163
161.009415,1.079093
160.020615,1.072607
159.004333,1.065222
158.015564,1.058630
157.026764,1.051631
156.010544,1.044900
155.021729,1.038542
154.005478,1.031658
153.016708,1.025095
152.000443,1.017529
151.011673,1.010589
150.022858,1.004247
149.006622,0.998027
148.017822,0.991084
147.001556,0.983640
146.012772,0.977272
145.023972,0.970783
144.007736,0.963647
143.018936,0.957180
142.002655,0.950017
141.013901,0.943167
140.025085,0.936558
139.008850,0.929845
138.020050,0.923475
137.003769,0.916132
136.014999,0.909541
135.026199,0.903035
134.009964,0.896243
133.021164,0.889452
132.004913,0.882348
131.016113,0.875851
130.027283,0.869597
129.011078,0.862591
128.022263,0.855739
127.006020,0.848907
126.017204,0.842325
125.000938,0.835726
124.012169,0.828610
123.023369,0.821976
122.007118,0.815245
121.018311,0.808507
120.002029,0.801938
119.013283,0.794969
118.024460,0.788464
117.008224,0.781224
116.019402,0.774603
115.003166,0.767974
114.014351,0.761431
113.025566,0.754611
112.009323,0.747359
111.020508,0.740699
110.004265,0.734163
109.015457,0.727303
108.026642,0.720483
107.010399,0.714022
106.021584,0.707363
105.005371,0.700165
104.016556,0.693714
103.027771,0.687143
102.011497,0.680305
101.022690,0.673422
100.006439,0.666333
99.017632,0.659620
98.001389,0.653078
97.012573,0.646331
96.023758,0.640075
95.007515,0.632776
94.018700,0.626379
93.002457,0.619536
92.013649,0.612922
91.024887,0.606144
90.008591,0.599130
89.019775,0.592251
88.003563,0.585617
87.014717,0.578984
86.025963,0.572003
85.009674,0.565350
84.020859,0.558796
83.004631,0.551627
82.015800,0.544931
81.027039,0.538218
80.010742,0.531609
79.021935,0.524737
78.005684,0.517928
77.016876,0.511128
76.000633,0.504355
75.011818,0.497725
74.023056,0.491223
73.006760,0.484261
72.017944,0.477806
71.001701,0.470664
70.012894,0.463970
69.024109,0.457568
68.007835,0.450783
67.018997,0.444308
66.002754,0.437285
65.013939,0.430768
64.025177,0.424096
63.008881,0.416832
62.020069,0.410157
61.003826,0.403130
60.015011,0.396546
59.026226,0.390003
58.009926,0.382948
57.021172,0.376431
56.004875,0.369576
55.016060,0.362854
54.027275,0.356300
53.011005,0.349587
52.022217,0.342691
51.005924,0.335749
50.017109,0.329125
49.000866,0.322383
48.012054,0.315657
47.023270,0.309071
46.006969,0.302196
45.018211,0.295542
44.001915,0.288711
43.013073,0.281971
42.024315,0.275127
41.008018,0.268418
40.019230,0.261707
39.002964,0.254820
38.014122,0.248172
37.025364,0.241571
36.009068,0.234548
35.020279,0.228032
34.003983,0.221315
33.015167,0.214561
32.026382,0.207967
31.010088,0.200996
30.021326,0.194205
29.005032,0.187541
28.016247,0.180928
27.027433,0.174245
26.011137,0.167236
25.022348,0.160397
24.006052,0.153655
23.017294,0.146982
22.000998,0.140375
21.012157,0.133758
20.023371,0.126774
19.007101,0.120214
18.018314,0.113575
17.002018,0.106501
16.013233,0.099670
15.024419,0.093196
14.008123,0.086441
13.019336,0.079918
12.003040,0.072772
11.014254,0.066406
10.025441,0.059672
9.009144,0.052902
8.020358,0.046202
7.004062,0.039132
6.015275,0.032683
5.026462,0.025732
4.010166,0.019144
3.021353,0.013421
2.005083,0.008809
1.016323,0.004235
0.000000,0.001738
-0.988760,0.005301
-1.977626,0.010586
-2.993896,0.018362
-3.982709,0.024900
-4.998979,0.032061
-5.987792,0.038695
-6.976604,0.045211
-7.992875,0.052020
-8.981688,0.058629
-9.997957,0.065710
-10.986771,0.072529
-11.975583,0.078991
-12.991853,0.085672
-13.980665,0.092642
-14.996989,0.099308
-15.985749,0.105828
-16.974613,0.112735
-17.990831,0.119725
-18.979698,0.126260
-19.995966,0.133087
-20.984779,0.139743
-21.973593,0.146263
-22.989862,0.153276
-23.978676,0.160002
-24.994999,0.166855
-25.983759,0.173478
-27.000082,0.180141
-27.988842,0.186934
-28.977654,0.193626
-29.993923,0.200790
-30.982737,0.207266
-31.999060,0.213606
-32.987873,0.220182
-33.976685,0.227232
-34.992954,0.234105
-35.981770,0.240771
-36.998093,0.247820
-37.986855,0.254564
-38.975719,0.260799
-39.991932,0.267475
-40.980801,0.274352
-41.997017,0.281190
-42.985882,0.288032
-43.974697,0.294581
-44.990967,0.301436
-45.979778,0.307789
-46.996048,0.314883
-47.984913,0.321575
-48.973728,0.328161
-49.989998,0.335017
-50.978813,0.341976
-51.995083,0.348680
-52.983894,0.355306
-54.000217,0.362473
-54.989029,0.368964
-55.977844,0.375677
-56.994110,0.382435
-57.982929,0.389149
-58.999199,0.396098
-59.988010,0.402590
-60.976871,0.409423
-61.993145,0.416398
-62.981956,0.422745
-63.998226,0.429487
-64.987038,0.436151
-65.975906,0.443075
-66.992180,0.449720
-67.980995,0.456100
-68.997253,0.462993
-69.986069,0.469963
-70.974884,0.476932
-71.991211,0.483751
-72.980019,0.490555
-73.996292,0.497061
-74.985161,0.503673
-75.973915,0.510505
-76.990234,0.517576
-77.979050,0.523831
-78.995323,0.530780
-79.984192,0.537649
-81.000404,0.544576
-81.989273,0.550860
-82.978142,0.557665
-83.994354,0.564712
-84.983215,0.571234
-85.999489,0.577956
-86.988304,0.584728
-87.977112,0.591438
-88.993439,0.598349
-89.982254,0.605240
-90.998520,0.611784
-91.987381,0.618062
-92.976151,0.624887
-93.992470,0.631727
-94.981339,0.638552
-95.997551,0.645730
-96.986420,0.652170
-97.975182,0.658682
-98.991501,0.665533
-99.980316,0.672183
-100.996635,0.679548
-101.985451,0.686253
-103.001717,0.693119
-103.990585,0.699561
-104.979347,0.705894
-105.995674,0.712950
-106.984535,0.719933
-108.000801,0.726502
-108.989616,0.732863
-109.978432,0.739875
-110.994759,0.746988
-111.983620,0.753549
-112.999840,0.760096
-113.988701,0.766897
-114.977516,0.773646
-115.993790,0.780740
-116.982597,0.787450
-117.998917,0.794449
-118.987793,0.800682
-119.976540,0.806942
-120.992874,0.814287
-121.981682,0.821181
-122.998009,0.828023
-123.986816,0.834741
-124.975624,0.841193
-125.991959,0.848038
-126.980713,0.854602
-127.997040,0.861841
-128.985855,0.868492
-130.002182,0.874932
-130.991043,0.881894
-131.979797,0.888524
-132.996124,0.894991
-133.984924,0.902087
-135.001266,0.909386
-135.990128,0.915541
-136.978897,0.922201
-137.995209,0.929317
-138.984009,0.935974
-140.000351,0.942921
-140.989212,0.949585
-141.977966,0.956294
-142.994293,0.962665
-143.983093,0.969433
-144.999435,0.976653
-145.988190,0.983582
-146.977051,0.990269
-147.993378,0.997098
-148.982193,1.003542
-149.998520,1.010560
-150.987274,1.017253
-151.976135,1.023804
-152.992462,1.031065
-153.981277,1.037576
-154.997604,1.044202
-155.986404,1.050887
-157.002731,1.058058
-157.991592,1.065059
-158.980362,1.071730
-159.996674,1.078268
-160.985504,1.084907
-162.001816,1.091628
-162.990631,1.098481
-163.979446,1.105344
-164.995819,1.112215
-165.984589,1.118770
-167.000900,1.125884
-167.989716,1.132128
-168.978577,1.138832
-169.994904,1.146126
-170.983719,1.152905
-172.000046,1.159999
-172.988800,1.166715
-173.977661,1.173146
-174.993927,1.179967
-175.982803,1.186840
-176.999130,1.193318
-177.987946,1.200178
-178.976807,1.206924
-179.993011,1.213619
-180.981888,1.220316
-181.998260,1.227081
-182.987030,1.233838
-184.003342,1.240694
-184.992157,1.247877
-185.981033,1.254620
-186.997345,1.261180
-187.986160,1.268207
-189.002487,1.275208
-189.991287,1.282004
-190.980164,1.289030
-191.996368,1.295768
-192.985306,1.301875
-194.001617,1.309478
-194.990387,1.315845
-195.979248,1.322437
-196.995514,1.329112
-197.984390,1.336049
-199.000702,1.343060
-199.989532,1.349995
-200.978394,1.356701
-201.994644,1.363756
-202.983521,1.370544
-203.999786,1.377297
-204.988647,1.383820
-206.004990,1.390371
-206.993790,1.397745
-207.982666,1.404183
-208.998932,1.410983
-209.987793,1.417776
-211.004120,1.424826
-211.992920,1.431509
-212.981796,1.438569
-213.998062,1.445809
-214.986923,1.452313
-216.003265,1.459032
-216.992065,1.466138
-217.980942,1.472316
-218.997208,1.479165
-219.986069,1.486424
-221.002350,1.492808
-221.991211,1.499374
-222.980072,1.506585
-223.996338,1.513324
-224.985199,1.520041
-226.001480,1.526355
-226.990341,1.533725
-227.979218,1.540755
-228.995483,1.547981
-229.984344,1.554867
-231.000626,1.560948
-231.989487,1.567594
-233.005737,1.574712
-233.994614,1.581601
-234.983490,1.588046
-235.999741,1.595031
-236.988617,1.601581
-238.004898,1.609188
-238.993744,1.616154
-239.982620,1.622642
-240.998901,1.629412
-241.987823,1.636668
-243.004013,1.644085
-243.992950,1.650424
-244.981827,1.656593
-245.998077,1.664267
-246.986954,1.670824
-248.003220,1.677087
-248.992081,1.684253
-249.980896,1.690817
-250.997223,1.697719
-251.986099,1.705191
-253.002350,1.712174
-253.991226,1.718125
-254.980042,1.724761
-255.996399,1.732305
-256.985291,1.739534
-258.001556,1.746049
-258.990417,1.752260
-260.006683,1.759216
-260.995544,1.766209
-261.984344,1.773274
-263.000671,1.780614
-263.989624,1.786438
-265.005829,1.793857
-265.994751,1.800996
-266.983490,1.807691
-267.999878,1.814359
-268.988739,1.821811
-270.005005,1.828769
-270.993896,1.834633
-271.982666,1.841176
-272.999054,1.848795
-273.987946,1.855811
-275.004181,1.862658
-275.993073,1.868718
-276.981873,1.876234
-277.998230,1.882891
-278.987000,1.889658
-280.003387,1.896920
-280.992279,1.903409
-281.981079,1.910681
-282.997406,1.917721
-283.986206,1.924886
-285.002563,1.931140
-285.991455,1.937669
-287.007721,1.945360
-287.996582,1.951808
-288.985382,1.958335
-290.001740,1.964988
-290.990540,1.972260
-292.006897,1.979926
-292.995789,1.985838
-293.984589,1.993046
-295.000916,2.000852
-295.989716,2.007561
-297.006104,2.013861
-297.994965,2.020844
-298.983795,2.028073
-300.000183,2.035000
-300.988922,2.040497
-302.005280,2.048459
-302.994171,2.055131
-303.982971,2.062270
-304.999359,2.069032
-305.988129,2.075622
-307.004486,2.082957
-307.993286,2.089915
-309.009613,2.097064
-309.998535,2.103138
-310.987335,2.110101
-312.003693,2.117145
-312.992493,2.124521
-314.008850,2.131866
-314.997742,2.138239
-315.986542,2.144742
