2,NASCAR Toyota Camry,watkinsglen
Steering Wheel Angle,Yaw Rate
356.563568,2.110829
355.564758,2.114688
354.566010,2.139874
353.533997,2.139542
352.535248,2.132751
351.536469,2.126682
350.504425,2.119226
349.505646,2.110121
348.506927,2.099609
347.474854,2.088848
346.476105,2.083449
345.477325,2.077179
344.445282,2.070542
343.446533,2.069119
342.447784,2.065306
341.415710,2.058434
340.416962,2.052237
339.418213,2.043812
338.386139,2.039813
337.387360,2.033364
336.388641,2.026773
335.356598,2.020537
334.357849,2.014413
333.359039,2.008885
332.326996,2.002093
331.328247,1.995636
330.329498,1.989557
329.297424,1.982922
328.298645,1.977463
327.299927,1.971505
326.267853,1.964815
325.269073,1.959175
324.270355,1.952979
323.238281,1.947030
322.239502,1.940885
321.240784,1.934193
320.208710,1.927821
319.209961,1.921365
318.211212,1.914889
317.179138,1.909179
316.180359,1.903746
315.181641,1.897152
314.149536,1.890477
313.150787,1.884410
312.152069,1.877628
311.119995,1.872164
310.121185,1.866018
309.089172,1.859470
308.090393,1.853554
307.091644,1.847371
306.059570,1.840999
305.060852,1.834823
304.062042,1.828719
303.029999,1.822487
302.031219,1.817012
301.032471,1.811402
300.000427,1.804429
299.001678,1.798396
298.002899,1.792080
296.970825,1.785238
295.972076,1.779968
294.973328,1.773525
293.941254,1.766814
292.942474,1.760650
291.943726,1.755219
290.911652,1.749210
289.912903,1.742860
288.914154,1.736699
287.882080,1.730078
286.883301,1.724443
285.884552,1.718582
284.852478,1.712090
283.853729,1.705723
282.854980,1.699643
281.822876,1.693856
280.824127,1.687981
279.825317,1.681866
278.793304,1.675675
277.794556,1.669632
276.795776,1.663579
275.763702,1.656707
274.764984,1.650872
273.766174,1.644690
272.734131,1.638391
271.735382,1.632828
270.736603,1.626764
269.704529,1.620184
268.705780,1.614137
267.707001,1.607921
266.674927,1.602262
265.676178,1.595791
264.677399,1.590324
263.645355,1.583582
262.646576,1.577270
261.647827,1.570956
260.615753,1.565196
259.617004,1.559072
258.584900,1.552778
257.586182,1.546760
256.587372,1.540993
255.555344,1.534561
254.556549,1.528661
253.557785,1.522230
252.525742,1.515787
251.526947,1.509921
250.528183,1.503522
249.496140,1.497313
248.497330,1.491348
247.498581,1.485990
246.466522,1.480048
245.467773,1.473576
244.468964,1.467668
243.436951,1.461586
242.438156,1.455131
241.439392,1.448940
240.407318,1.442768
239.408585,1.436363
238.409760,1.430974
237.377716,1.424351
236.378922,1.418022
235.380157,1.411928
234.348114,1.405756
233.349335,1.400668
232.350586,1.394261
231.318527,1.387829
230.319733,1.382052
229.320969,1.376232
228.288895,1.369929
227.290115,1.363996
226.291382,1.357486
225.259277,1.350876
224.260529,1.344623
223.261749,1.338888
222.229706,1.332724
221.230927,1.326849
220.232147,1.321170
219.200073,1.314907
218.201324,1.308928
217.202515,1.302738
216.170486,1.296050
215.171677,1.290332
214.172928,1.284472
213.140839,1.278315
212.142090,1.272119
211.143280,1.266346
210.111252,1.260116
209.112442,1.253916
208.113693,1.248056
207.081604,1.241572
206.082840,1.235916
205.050766,1.229498
204.052017,1.223234
203.053238,1.216928
202.021164,1.210604
201.022385,1.204862
200.023605,1.199479
198.991516,1.193161
197.992783,1.187164
196.994003,1.180826
195.961929,1.175230
194.963150,1.168837
193.964371,1.162738
192.932281,1.156311
191.933533,1.149872
190.934753,1.144073
189.902695,1.138255
188.903946,1.132439
187.905136,1.126530
186.873108,1.119494
185.874298,1.113564
184.875549,1.108122
183.843445,1.101931
182.844696,1.095471
181.845901,1.089399
180.813843,1.083369
179.815063,1.077345
178.816269,1.071257
177.784180,1.065193
176.785431,1.058993
175.786636,1.052936
174.754608,1.047103
173.755783,1.041076
172.757034,1.035085
171.724945,1.028451
170.726196,1.022833
169.727371,1.016816
168.695328,1.010601
167.696548,1.004631
166.697769,0.998685
165.665665,0.992077
164.666916,0.986024
163.668106,0.979952
162.636078,0.973869
161.637283,0.968161
160.638535,0.962278
159.606430,0.955853
158.607651,0.950362
157.608841,0.944353
156.576813,0.937683
155.578003,0.932050
154.545944,0.925813
153.547165,0.919168
152.548386,0.913264
151.516296,0.907450
150.517532,0.901591
149.518738,0.895396
148.486664,0.888697
147.487885,0.882798
146.489105,0.876955
145.457016,0.871051
144.458267,0.864766
143.459503,0.858493
142.427399,0.852660
141.428650,0.846724
140.429840,0.840603
139.397781,0.834602
138.399002,0.828323
137.400223,0.822172
136.368118,0.816094
135.369385,0.810019
134.370560,0.803828
133.338501,0.797681
132.339691,0.791638
131.340958,0.785744
130.308853,0.779475
129.310074,0.773656
128.311264,0.768090
127.279228,0.761793
126.280426,0.755336
125.281647,0.749489
124.249550,0.743336
123.250801,0.737635
122.251991,0.731428
121.219940,0.725212
120.221115,0.719565
119.222366,0.713596
118.190239,0.707211
117.191505,0.701052
116.192688,0.694806
115.160629,0.688555
114.161819,0.682833
113.163063,0.676738
112.130974,0.670619
111.132202,0.664406
110.133385,0.658455
109.101326,0.652563
108.102509,0.646474
107.103767,0.640203
106.071671,0.634356
105.072891,0.628426
104.074081,0.622375
103.042015,0.616308
102.043213,0.610514
101.011185,0.603914
100.012398,0.597806
99.013596,0.591961
97.981529,0.586196
96.982719,0.580010
95.983971,0.573652
94.951881,0.567562
93.953102,0.561473
92.954285,0.555704
91.922226,0.549338
90.923409,0.543576
89.924667,0.537372
88.892548,0.531070
87.893791,0.525300
86.894981,0.519777
85.862923,0.513333
84.864113,0.507395
83.865334,0.501323
82.833237,0.494918
81.834457,0.488900
80.835648,0.483017
79.803581,0.476764
78.804771,0.471023
77.806030,0.465252
76.773903,0.458795
75.775154,0.452909
74.776337,0.446864
73.744286,0.440920
72.745476,0.434750
71.746696,0.428501
70.714600,0.422603
69.715820,0.416468
68.717003,0.410381
67.684944,0.404311
66.686142,0.398272
65.687355,0.392413
64.655266,0.386047
63.656487,0.380002
62.657673,0.373958
61.625610,0.367979
60.626797,0.362049
59.628021,0.356238
58.595932,0.349755
57.597145,0.343757
56.598400,0.337926
55.566277,0.331827
54.567528,0.325766
53.568687,0.319956
52.536625,0.313661
51.537811,0.307523
50.505753,0.301229
49.506939,0.295488
48.508160,0.289845
47.476070,0.283368
46.477287,0.277415
45.478477,0.271634
44.446415,0.265163
43.447601,0.259403
42.448826,0.253553
41.416702,0.247101
40.417953,0.241361
39.419140,0.235154
38.387077,0.229041
37.388233,0.223103
36.389488,0.217041
35.357365,0.211153
34.358585,0.204953
33.359772,0.198913
32.327709,0.192847
31.328901,0.186789
30.330120,0.180959
29.297997,0.174606
28.299248,0.168553
27.300406,0.162855
26.268345,0.156504
25.269531,0.150796
24.270754,0.144517
23.238661,0.138549
22.239880,0.132753
21.241070,0.126660
20.209009,0.120400
19.210163,0.114555
18.211416,0.108468
17.179293,0.102223
16.180511,0.096196
15.181702,0.090296
14.149640,0.084036
13.150796,0.078119
12.152049,0.072405
11.119988,0.065989
10.121144,0.060073
9.122396,0.054185
8.090272,0.047917
7.091493,0.042095
6.092681,0.036038
5.060620,0.029951
4.061809,0.023734
3.062997,0.018305
2.030904,0.014232
1.032093,0.010233
0.000000,0.005918
-0.998747,0.001217
-1.997624,0.006155
-3.029652,0.012755
-4.028464,0.018624
-5.027276,0.024776
-6.059368,0.030841
-7.058115,0.036609
-8.056992,0.042769
-9.089020,0.048921
-10.087896,0.054998
-11.086643,0.061078
-12.118735,0.067157
-13.117547,0.072841
-14.116360,0.078912
-15.148452,0.084818
-16.147263,0.091154
-17.146011,0.096864
-18.178169,0.103251
-19.176916,0.108974
-20.175728,0.115162
-21.207819,0.121213
-22.206633,0.127053
-23.205444,0.133332
-24.237535,0.139442
-25.236284,0.145429
-26.235159,0.151234
-27.267187,0.157662
-28.266064,0.163407
-29.264811,0.169575
-30.296968,0.175584
-31.295717,0.181717
-32.294464,0.187544
-33.326618,0.193566
-34.325367,0.199813
-35.324245,0.205665
-36.356274,0.211807
-37.355083,0.217866
-38.353897,0.223848
-39.385986,0.229950
-40.384800,0.235920
-41.383614,0.242038
-42.415703,0.247832
-43.414516,0.253921
-44.413265,0.260196
-45.445419,0.266054
-46.444168,0.272288
-47.443043,0.278037
-48.475071,0.284232
-49.473949,0.290325
-50.472694,0.296423
-51.504852,0.302281
-52.503601,0.308374
-53.535759,0.314379
-54.534504,0.320482
-55.533318,0.326641
-56.565411,0.332473
-57.564224,0.338430
-58.563034,0.344582
-59.595127,0.350664
-60.593937,0.356802
-61.592751,0.362767
-62.624840,0.368901
-63.623653,0.374717
-64.622467,0.380771
-65.654556,0.387178
-66.653366,0.393141
-67.652184,0.399062
-68.684273,0.405071
-69.683090,0.411053
-70.681831,0.417195
-71.713989,0.423333
-72.712738,0.429212
-73.711617,0.435370
-74.743645,0.441581
-75.742516,0.447531
-76.741264,0.453132
-77.773361,0.459647
-78.772171,0.465651
-79.770981,0.471233
-80.803070,0.477559
-81.801888,0.483431
-82.800697,0.489593
-83.832787,0.495824
-84.831604,0.501983
-85.830414,0.507657
-86.862572,0.513969
-87.861313,0.519870
-88.860130,0.526061
-89.892227,0.531663
-90.891098,0.537730
-91.889847,0.544094
-92.921997,0.550128
-93.920753,0.555706
-94.919624,0.562173
-95.951653,0.568125
-96.950531,0.574133
-97.949280,0.580155
-98.981438,0.586143
-99.980179,0.592491
-100.979065,0.598800
-102.011093,0.605041
-103.009964,0.610565
-104.008705,0.616386
-105.040863,0.622592
-106.039619,0.628500
-107.071777,0.635044
-108.070587,0.640711
-109.069389,0.646654
-110.101486,0.653301
-111.100304,0.659217
-112.099113,0.665006
-113.131271,0.671176
-114.130020,0.677292
-115.128899,0.683250
-116.160927,0.689593
-117.159798,0.695557
-118.158554,0.701626
-119.190704,0.707627
-120.189453,0.713717
-121.188255,0.719773
-122.220421,0.725977
-123.219162,0.732105
-124.218033,0.737914
-125.250061,0.744265
-126.248947,0.750352
-127.247688,0.755983
-128.279846,0.761845
-129.278656,0.768325
-130.277481,0.774364
-131.309555,0.780515
-132.308380,0.786360
-133.307190,0.792298
-134.339355,0.798642
-135.338089,0.804743
-136.336975,0.810675
-137.369003,0.816942
-138.367874,0.822707
-139.366684,0.828500
-140.398773,0.834458
-141.397583,0.840586
-142.396408,0.846630
-143.428497,0.852892
-144.427368,0.858872
-145.426117,0.865097
-146.458282,0.871398
-147.457077,0.877635
-148.455902,0.883560
-149.487991,0.889341
-150.486877,0.895557
-151.485611,0.901729
-152.517776,0.908016
-153.516525,0.913629
-154.515396,0.919706
-155.547485,0.926099
-156.546295,0.931813
-157.578400,0.937960
-158.577271,0.944002
-159.576004,0.950210
-160.608170,0.956660
-161.606918,0.962703
-162.605804,0.968771
-163.637894,0.975006
-164.636765,0.980980
-165.635513,0.986782
-166.667603,0.993015
-167.666428,0.999059
-168.665222,1.004842
-169.697372,1.010570
-170.696136,1.017030
-171.695007,1.022436
-172.727097,1.029042
-173.725922,1.035597
-174.724731,1.041534
-175.756882,1.047766
-176.755630,1.054006
-177.754501,1.059963
-178.786606,1.066095
-179.785477,1.071846
-180.784225,1.077623
-181.816376,1.084117
-182.815125,1.090036
-183.813995,1.095650
-184.846100,1.101902
-185.844971,1.107866
-186.843719,1.114425
-187.875870,1.120540
-188.874695,1.126384
-189.873505,1.132319
-190.905594,1.138683
-191.904465,1.144938
-192.903214,1.151079
-193.935364,1.156791
-194.934189,1.162499
-195.933060,1.168749
-196.965088,1.175274
-197.963959,1.181298
-198.962769,1.187450
-199.994934,1.193636
-200.993683,1.199353
-201.992554,1.205152
-203.024643,1.211487
-204.023468,1.217651
-205.022263,1.223529
-206.054428,1.230011
-207.053177,1.235899
-208.085403,1.241978
-209.084137,1.248273
-210.082886,1.253792
-211.115112,1.260538
-212.113861,1.266527
-213.112732,1.272328
-214.144836,1.278530
-215.143646,1.284456
-216.142456,1.290714
-217.174606,1.296682
-218.173355,1.302689
-219.172241,1.308818
-220.204330,1.315029
-221.203201,1.321098
-222.201950,1.327107
-223.234177,1.332956
-224.232925,1.339429
-225.231796,1.345690
-226.263885,1.351905
-227.262772,1.357954
-228.261505,1.363859
-229.293671,1.369893
-230.292496,1.375881
-231.291367,1.381848
-232.323380,1.388216
-233.322250,1.394269
-234.321075,1.400665
-235.353226,1.406620
-236.351990,1.412614
-237.350861,1.418661
-238.382965,1.424731
-239.381836,1.430567
-240.380569,1.436900
-241.412811,1.442982
-242.411545,1.449429
-243.410416,1.455654
-244.442505,1.461599
-245.441391,1.468000
-246.440125,1.473795
-247.472305,1.479281
-248.471100,1.485824
-249.469971,1.491851
-250.502060,1.498195
-251.500946,1.504271
-252.499710,1.510783
-253.531860,1.516841
-254.530670,1.522510
-255.529404,1.529047
-256.561554,1.535427
-257.560394,1.541545
-258.559265,1.546708
-259.591339,1.552707
-260.590240,1.559266
-261.622253,1.565802
-262.621124,1.572033
-263.619934,1.577832
-264.652100,1.583767
-265.650909,1.590019
-266.649780,1.596646
-267.681824,1.602520
-268.680695,1.608215
-269.679504,1.614276
-270.711670,1.620830
-271.710449,1.627399
-272.709351,1.633095
-273.741425,1.638504
-274.740295,1.645177
-275.739075,1.650942
-276.771210,1.657359
-277.770050,1.663446
-278.768921,1.669902
-279.800995,1.675887
-280.799866,1.681997
-281.798615,1.688225
-282.830841,1.694457
-283.829590,1.699998
-284.828461,1.706551
-285.860565,1.712781
-286.859436,1.718754
-287.858246,1.724471
-288.890411,1.731033
-289.889130,1.737190
-290.888000,1.742822
-291.920105,1.749389
-292.918976,1.756236
-293.917816,1.762486
-294.949951,1.768903
-295.948761,1.773937
-296.947662,1.780026
-297.979736,1.787000
-298.978485,1.793165
-299.977356,1.798740
-301.009460,1.805287
-302.008331,1.811152
-303.007141,1.816930
-304.039307,1.823207
-305.038116,1.829413
-306.036987,1.835936
-307.069031,1.842115
-308.067963,1.847874
-309.066711,1.854167
-310.098877,1.860268
-311.097656,1.866732
-312.129852,1.873308
-313.128632,1.879595
-314.127502,1.884864
-315.159607,1.890976
-316.158478,1.897579
-317.157318,1.902567
-318.189453,1.909576
-319.188263,1.915789
-320.187134,1.921679
-321.219177,1.928091
-322.218109,1.934033
-323.216858,1.939981
-324.249084,1.946333
-325.247833,1.953198
-326.246704,1.959497
-327.278809,1.965440
-328.277679,1.971076
-329.276489,1.978118
-330.308655,1.984259
-331.307465,1.990481
-332.306335,1.995659
-333.338440,2.002191
-334.337311,2.008173
-335.336121,2.014482
-336.368286,2.020940
-337.367096,2.027180
-338.365967,2.033707
-339.398071,2.039446
-340.396942,2.045439
-341.395691,2.051906
-342.427917,2.058623
-343.426697,2.064227
-344.425476,2.069967
-345.457672,2.076491
-346.456451,2.082671
-347.455322,2.089233
-348.487396,2.095479
-349.486267,2.100913
-350.485077,2.107678
-351.517242,2.114285
-352.516052,2.119375
-353.514923,2.125448
-354.547028,2.126240
-355.545898,2.126182
-356.544708,2.125653
