2,Porsche 718 Cayman GT4,baseline
Steering Wheel Angle,Yaw Rate
273.016235,1.628977
271.999969,1.622575
271.011169,1.616798
270.022430,1.611352
269.006195,1.606891
268.017395,1.603348
267.001190,1.599702
266.012421,1.596173
265.023651,1.592414
264.007385,1.588451
263.018616,1.581419
262.002350,1.575272
261.013611,1.569323
260.024841,1.563261
259.008575,1.553756
258.019806,1.546004
257.003571,1.539868
256.014801,1.534571
254.998566,1.530248
254.009781,1.522115
253.021011,1.517522
252.004791,1.513183
251.015961,1.509275
249.999741,1.502852
249.010956,1.494200
248.022217,1.488287
247.005966,1.482421
246.017166,1.473791
245.000916,1.467698
244.012177,1.462285
243.023422,1.453869
242.007141,1.448051
241.018341,1.443278
240.002121,1.436091
239.013351,1.430342
238.024597,1.427496
237.008316,1.422391
236.019547,1.416198
235.003296,1.412220
234.014542,1.406799
233.025772,1.399039
232.009491,1.393657
231.020752,1.388091
230.004471,1.379309
229.015686,1.373786
227.999451,1.367979
227.010681,1.359250
226.021896,1.354040
225.005646,1.348358
224.016876,1.339950
223.000626,1.333235
222.011841,1.328885
221.023071,1.321884
220.006836,1.315709
219.018051,1.312250
218.001816,1.306671
217.013016,1.300805
216.024261,1.297611
215.007996,1.291891
214.019226,1.284602
213.002960,1.279031
212.014175,1.273211
211.025421,1.264669
210.009140,1.259157
209.020386,1.253363
208.004135,1.244562
207.015366,1.238335
206.026566,1.233291
205.010300,1.225318
204.021530,1.219317
203.005295,1.215124
202.016510,1.209040
201.000275,1.203292
200.011475,1.200386
199.022705,1.194801
198.006454,1.187650
197.017670,1.183715
196.001419,1.177696
195.012619,1.169646
194.023849,1.164457
193.007599,1.158550
192.018814,1.149807
191.002563,1.143360
190.013794,1.136499
189.024994,1.128887
188.008728,1.122935
187.019974,1.119216
186.003708,1.112273
185.014938,1.106816
184.026154,1.103619
183.009888,1.098276
182.021133,1.091579
181.004852,1.087043
180.016098,1.081394
178.999817,1.073097
178.011047,1.068077
177.022247,1.061982
176.005981,1.052931
175.017227,1.046906
174.000961,1.041184
173.012192,1.032878
172.023392,1.026823
171.007111,1.022114
170.018356,1.015991
169.002075,1.010002
168.013321,1.007048
167.024506,1.001169
166.008270,0.994837
165.019485,0.991000
164.003220,0.985179
163.014450,0.977186
162.025650,0.971753
161.009415,0.965672
160.020615,0.956863
159.004333,0.950539
158.015564,0.945009
157.026764,0.936978
156.010544,0.930485
155.021729,0.926520
154.005478,0.919722
153.016708,0.913921
152.000443,0.910612
151.011673,0.905325
150.022858,0.898781
149.006622,0.894716
148.017822,0.889122
147.001556,0.881266
146.012772,0.876175
145.023972,0.870179
144.007736,0.861859
143.018936,0.855568
142.002655,0.849637
141.013901,0.841369
140.025085,0.834881
139.008850,0.829834
138.020050,0.823392
137.003769,0.817291
136.014999,0.813938
135.026199,0.808147
134.009964,0.802210
133.021164,0.798302
132.004913,0.792861
131.016113,0.785272
130.027283,0.779817
129.011078,0.773470
128.022263,0.765068
127.006020,0.758314
126.017204,0.752817
125.000938,0.744644
124.012169,0.738410
123.023369,0.734892
122.007118,0.728974
121.018311,0.723420
120.002029,0.719743
119.013283,0.714133
118.024460,0.707210
117.008224,0.702433
116.019402,0.696460
115.003166,0.688047
114.014351,0.682227
113.025566,0.676049
112.009323,0.667439
111.020508,0.660898
110.004265,0.655931
109.015457,0.649217
108.026642,0.643672
107.010399,0.639946
106.021584,0.635259
105.005371,0.629880
104.016556,0.624084
103.027771,0.616546
102.011497,0.607667
101.022690,0.600961
100.006439,0.595962
99.017632,0.588493
98.001389,0.582516
97.012573,0.579324
96.023758,0.574942
95.007515,0.568690
94.018700,0.564561
93.002457,0.558349
92.013649,0.550658
91.024887,0.544715
90.008591,0.538504
89.019775,0.529213
88.003563,0.522879
87.014717,0.517894
86.025963,0.510761
85.009674,0.505183
84.020859,0.501910
83.004631,0.497495
82.015800,0.491397
81.027039,0.486458
80.010742,0.479874
79.021935,0.470638
78.005684,0.464085
77.016876,0.458503
76.000633,0.449928
75.011818,0.444397
74.023056,0.441283
73.006760,0.436661
72.017944,0.431659
71.001701,0.426185
70.012894,0.419623
69.024109,0.410951
68.007835,0.404702
67.018997,0.398969
66.002754,0.389623
65.013939,0.384076
64.025177,0.380629
63.008881,0.376245
62.020069,0.370722
61.003826,0.366346
60.015011,0.360211
59.026226,0.350810
58.009926,0.343784
57.021172,0.338496
56.004875,0.330786
55.016060,0.325994
54.027275,0.322737
53.011005,0.317874
52.022217,0.310332
51.005924,0.303377
50.017109,0.297408
49.000866,0.287976
48.012054,0.283027
47.023270,0.279874
46.006969,0.275458
45.018211,0.269775
44.001915,0.263771
43.013073,0.257126
42.024315,0.247155
41.008018,0.240055
40.019230,0.235488
39.002964,0.228718
38.014122,0.224097
37.025364,0.220764
36.009068,0.215762
35.020279,0.208755
34.003983,0.202364
33.015167,0.196167
32.026382,0.186222
31.010088,0.180544
30.021326,0.177410
29.005032,0.172834
28.016247,0.166949
27.027433,0.162545
26.011137,0.155632
25.022348,0.145100
24.006052,0.137933
23.017294,0.133352
22.000998,0.129071
21.012157,0.125108
20.023371,0.120731
19.007101,0.113777
18.018314,0.104620
17.002018,0.097584
16.013233,0.092317
15.024419,0.085379
14.008123,0.081961
13.019336,0.078001
12.003040,0.072258
11.014254,0.064887
10.025441,0.056373
9.009144,0.048497
8.020358,0.042325
7.004062,0.038526
6.015275,0.034650
5.026462,0.029852
4.010166,0.022883
3.021353,0.014401
2.005083,0.008572
1.016323,0.004256
0.000000,0.001428
-0.988760,0.004713
-1.977626,0.011766
-2.993896,0.018421
-3.982709,0.022850
-4.998979,0.026802
-5.987792,0.032282
-6.976604,0.040337
-7.992875,0.048682
-8.981688,0.055209
-9.997957,0.060800
-10.986771,0.064353
-11.975583,0.068390
-12.991853,0.074724
-13.980665,0.082137
-14.996989,0.089841
-15.985749,0.097460
-16.974613,0.102989
-17.990831,0.107034
-18.979698,0.110942
-19.995966,0.116547
-20.984779,0.123296
-21.973593,0.131364
-22.989862,0.139491
-23.978676,0.144998
-24.994999,0.149731
-25.983759,0.153795
-27.000082,0.158027
-27.988842,0.164258
-28.977654,0.172383
-29.993923,0.180763
-30.982737,0.187651
-31.999060,0.192826
-32.987873,0.196213
-33.976685,0.200379
-34.992954,0.206556
-35.981770,0.214025
-36.998093,0.222245
-37.986855,0.229660
-38.975719,0.234680
-39.991932,0.239121
-40.980801,0.242658
-41.997017,0.248259
-42.985882,0.255654
-43.974697,0.263774
-44.990967,0.271683
-45.979778,0.276745
-46.996048,0.280319
-47.984913,0.284614
-48.973728,0.290221
-49.989998,0.298505
-50.978813,0.306728
-51.995083,0.313466
-52.983894,0.318561
-54.000217,0.322388
-54.989029,0.326638
-55.977844,0.332147
-56.994110,0.339822
-57.982929,0.347869
-58.999199,0.355605
-59.988010,0.360967
-60.976871,0.365456
-61.993145,0.369290
-62.981956,0.374057
-63.998226,0.380859
-64.987038,0.388845
-65.975906,0.396778
-66.992180,0.403788
-67.980995,0.409012
-68.997253,0.412768
-69.986069,0.416786
-70.974884,0.422009
-71.991211,0.429472
-72.980019,0.437730
-73.996292,0.445537
-74.985161,0.451725
-75.973915,0.455307
-76.990234,0.459085
-77.979050,0.464047
-78.995323,0.471044
-79.984192,0.479015
-81.000404,0.487469
-81.989273,0.493638
-82.978142,0.497739
-83.994354,0.501708
-84.983215,0.506526
-85.999489,0.512741
-86.988304,0.519940
-87.977112,0.528530
-88.993439,0.535776
-89.982254,0.540815
-90.998520,0.545083
-91.987381,0.549077
-92.976151,0.554190
-93.992470,0.560798
-94.981339,0.569129
-95.997551,0.575832
-96.986420,0.581830
-97.975182,0.589690
-98.991501,0.595919
-99.980316,0.599754
-100.996635,0.605956
-101.985451,0.611817
-103.001717,0.614676
-103.990585,0.619943
-104.979347,0.627386
-105.995674,0.632599
-106.984535,0.638898
-108.000801,0.647149
-108.989616,0.653718
-109.978432,0.659827
-110.994759,0.667875
-111.983620,0.674024
-112.999840,0.678512
-113.988701,0.684598
-114.977516,0.690186
-115.993790,0.693063
-116.982597,0.698089
-117.998917,0.705697
-118.987793,0.710824
-119.976540,0.716766
-120.992874,0.724996
-121.981682,0.731602
-122.998009,0.737507
-123.986816,0.745774
-124.975624,0.751946
-125.991959,0.756562
-126.980713,0.763396
-127.997040,0.769250
-128.985855,0.772581
-130.002182,0.777980
-130.991043,0.784412
-131.979797,0.788333
-132.996124,0.794204
-133.984924,0.802084
-135.001266,0.807542
-135.990128,0.813129
-136.978897,0.821946
-137.995209,0.828249
-138.984009,0.833610
-140.000351,0.841941
-140.989212,0.848083
-141.977966,0.852601
-142.994293,0.859518
-143.983093,0.865302
-144.999435,0.868473
-145.988190,0.873831
-146.977051,0.880284
-147.993378,0.884530
-148.982193,0.890151
-149.998520,0.898228
-150.987274,0.903758
-151.976135,0.909734
-152.992462,0.918146
-153.981277,0.924688
-154.997604,0.930336
-155.986404,0.938160
-157.002731,0.944639
-157.991592,0.948975
-158.980362,0.955130
-159.996674,0.961247
-160.985504,0.964697
-162.001816,0.970270
-162.990631,0.976552
-163.979446,0.980712
-164.995819,0.986392
-165.984589,0.993870
-167.000900,0.999560
-167.989716,1.005368
-168.978577,1.013498
-169.994904,1.019629
-170.983719,1.025510
-172.000046,1.034202
-172.988800,1.040211
-173.977661,1.044923
-174.993927,1.052472
-175.982803,1.057989
-176.999130,1.061918
-177.987946,1.067610
-178.976807,1.073877
-179.993011,1.077534
-180.981888,1.083179
-181.998260,1.090244
-182.987030,1.094795
-184.003342,1.100699
-184.992157,1.108920
-185.981033,1.114273
-186.997345,1.120135
-187.986160,1.128562
-189.002487,1.134766
-189.991287,1.140472
-190.980164,1.148806
-191.996368,1.154725
-192.985306,1.159518
-194.001617,1.166577
-194.990387,1.172433
-195.979248,1.175988
-196.995514,1.181527
-197.984390,1.187708
-199.000702,1.191540
-199.989532,1.196818
-200.978394,1.204419
-201.994644,1.208961
-202.983521,1.215118
-203.999786,1.223675
-204.988647,1.229186
-206.004990,1.234977
-206.993790,1.243559
-207.982666,1.249467
-208.998932,1.255157
-209.987793,1.263267
-211.004120,1.269291
-211.992920,1.273601
-212.981796,1.280266
-213.998062,1.285912
-214.986923,1.288921
-216.003265,1.294852
-216.992065,1.301166
-217.980942,1.305232
-218.997208,1.310844
-219.986069,1.318696
-221.002350,1.324257
-221.991211,1.330085
-222.980072,1.338389
-223.996338,1.344924
-224.985199,1.350674
-226.001480,1.359185
-226.990341,1.365650
-227.979218,1.370198
-228.995483,1.377719
-229.984344,1.383430
-231.000626,1.387204
-231.989487,1.393003
-233.005737,1.399002
-233.994614,1.402202
-234.983490,1.407285
-235.999741,1.415266
-236.988617,1.419854
-238.004898,1.425957
-238.993744,1.434649
-239.982620,1.440757
-240.998901,1.446683
-241.987823,1.454879
-243.004013,1.461189
-243.992950,1.466470
-244.981827,1.474315
-245.998077,1.480370
-246.986954,1.484217
-248.003220,1.490147
-248.992081,1.495954
-249.980896,1.498855
-250.997223,1.504712
-251.986099,1.511412
-253.002350,1.515853
-253.991226,1.521451
-254.980042,1.529918
-255.996399,1.536258
-256.985291,1.542130
-258.001556,1.551072
-258.990417,1.558599
-260.006683,1.563857
-260.995544,1.570979
-261.984344,1.575505
-263.000671,1.578651
-263.989624,1.584009
-265.005829,1.590640
-265.994751,1.594434
-266.983490,1.599748
-267.999878,1.607970
-268.988739,1.613225
-270.005005,1.619225
-270.993896,1.627872
-271.982666,1.633930
-272.999054,1.639870
