2,Porsche 911 RSR,baseline
Steering Wheel Angle,Yaw Rate
257.003571,1.654774
256.014801,1.647921
254.998566,1.641876
254.009781,1.636925
253.021011,1.631916
252.004791,1.626367
251.015961,1.621098
249.999741,1.615360
249.010956,1.609796
248.022217,1.604340
247.005966,1.598556
246.017166,1.592858
245.000916,1.586844
244.012177,1.581007
243.023422,1.575013
242.007141,1.568658
241.018341,1.562171
240.002121,1.555623
239.013351,1.548962
238.024597,1.542521
237.008316,1.535851
236.019547,1.529208
235.003296,1.522568
234.014542,1.516209
233.025772,1.509672
232.009491,1.502928
231.020752,1.496495
230.004471,1.489704
229.015686,1.483402
227.999451,1.476564
227.010681,1.470028
226.021896,1.463635
225.005646,1.456965
224.016876,1.450307
223.000626,1.443619
222.011841,1.436588
221.023071,1.429522
220.006836,1.421790
219.018051,1.414281
218.001816,1.406787
217.013016,1.399036
216.024261,1.392314
215.007996,1.386021
214.019226,1.379400
213.002960,1.373358
212.014175,1.368078
211.025421,1.362303
210.009140,1.356516
209.020386,1.350408
208.004135,1.343864
207.015366,1.337188
206.026566,1.330155
205.010300,1.322698
204.021530,1.316148
203.005295,1.309139
202.016510,1.303634
201.000275,1.297185
200.011475,1.289974
199.022705,1.284144
198.006454,1.277159
197.017670,1.270543
196.001419,1.264215
195.012619,1.257694
194.023849,1.250991
193.007599,1.244359
192.018814,1.237952
191.002563,1.231221
190.013794,1.224732
189.024994,1.218463
188.008728,1.211700
187.019974,1.205405
186.003708,1.198407
185.014938,1.192192
184.026154,1.185697
183.009888,1.178618
182.021133,1.172652
181.004852,1.165227
180.016098,1.159370
178.999817,1.152469
178.011047,1.146263
177.022247,1.139523
176.005981,1.133270
175.017227,1.126260
174.000961,1.120244
173.012192,1.113525
172.023392,1.107203
171.007111,1.100342
170.018356,1.093550
169.002075,1.087038
168.013321,1.080854
167.024506,1.074578
166.008270,1.067853
165.019485,1.060988
164.003220,1.054649
163.014450,1.048036
162.025650,1.041946
161.009415,1.034864
160.020615,1.028367
159.004333,1.021834
158.015564,1.015476
157.026764,1.008824
156.010544,1.002147
155.021729,0.995971
154.005478,0.989406
153.016708,0.982538
152.000443,0.975611
151.011673,0.969743
150.022858,0.963038
149.006622,0.956421
148.017822,0.950337
147.001556,0.943376
146.012772,0.936785
145.023972,0.930667
144.007736,0.923878
143.018936,0.917290
142.002655,0.910847
141.013901,0.904015
140.025085,0.897619
139.008850,0.891206
138.020050,0.884595
137.003769,0.877716
136.014999,0.871587
135.026199,0.865071
134.009964,0.858391
133.021164,0.851948
132.004913,0.845426
131.016113,0.838915
130.027283,0.832402
129.011078,0.825878
128.022263,0.818927
127.006020,0.812891
126.017204,0.805933
125.000938,0.799687
124.012169,0.793046
123.023369,0.786713
122.007118,0.779949
121.018311,0.773232
120.002029,0.766584
119.013283,0.760088
118.024460,0.753875
117.008224,0.746938
116.019402,0.740547
115.003166,0.734280
114.014351,0.727665
113.025566,0.721275
112.009323,0.714430
111.020508,0.707721
110.004265,0.701302
109.015457,0.695075
108.026642,0.688471
107.010399,0.681732
106.021584,0.675078
105.005371,0.668740
104.016556,0.662253
103.027771,0.656316
102.011497,0.649236
101.022690,0.642600
100.006439,0.635844
99.017632,0.629230
98.001389,0.622963
97.012573,0.616386
96.023758,0.610062
95.007515,0.603088
94.018700,0.596905
93.002457,0.589848
92.013649,0.583659
91.024887,0.577364
90.008591,0.570165
89.019775,0.563909
88.003563,0.557324
87.014717,0.550762
86.025963,0.544373
85.009674,0.537784
84.020859,0.531215
83.004631,0.524690
82.015800,0.518062
81.027039,0.511766
80.010742,0.504813
79.021935,0.498396
78.005684,0.491698
77.016876,0.485247
76.000633,0.478909
75.011818,0.472391
74.023056,0.465993
73.006760,0.458993
72.017944,0.453057
71.001701,0.445910
70.012894,0.439459
69.024109,0.433021
68.007835,0.426634
67.018997,0.420099
66.002754,0.413316
65.013939,0.406797
64.025177,0.400572
63.008881,0.393740
62.020069,0.387036
61.003826,0.380631
60.015011,0.373937
59.026226,0.367620
58.009926,0.360867
57.021172,0.354304
56.004875,0.347829
55.016060,0.341429
54.027275,0.334758
53.011005,0.328348
52.022217,0.321675
51.005924,0.314977
50.017109,0.308584
49.000866,0.302312
48.012054,0.295449
47.023270,0.289114
46.006969,0.282400
45.018211,0.275877
44.001915,0.269361
43.013073,0.262899
42.024315,0.256377
41.008018,0.249450
40.019230,0.243270
39.002964,0.236567
38.014122,0.230182
37.025364,0.223415
36.009068,0.216709
35.020279,0.210530
34.003983,0.203611
33.015167,0.197502
32.026382,0.190657
31.010088,0.184063
30.021326,0.177753
29.005032,0.171174
28.016247,0.164366
27.027433,0.158221
26.011137,0.151413
25.022348,0.144837
24.006052,0.138339
23.017294,0.131786
22.000998,0.125124
21.012157,0.118709
20.023371,0.112025
19.007101,0.105620
18.018314,0.099193
17.002018,0.092310
16.013233,0.086023
15.024419,0.079599
14.008123,0.072679
13.019336,0.066346
12.003040,0.059946
11.014254,0.054988
10.025441,0.050109
9.009144,0.044997
8.020358,0.040077
7.004062,0.035019
6.015275,0.029987
5.026462,0.025077
4.010166,0.019984
3.021353,0.015067
2.005083,0.009932
1.016323,0.005055
0.000000,0.001373
-0.988760,0.005006
-1.977626,0.009959
-2.993896,0.015024
-3.982709,0.019962
-4.998979,0.025010
-5.987792,0.029943
-6.976604,0.034946
-7.992875,0.040008
-8.981688,0.044938
-9.997957,0.050047
-10.986771,0.054981
-11.975583,0.060438
-12.991853,0.067433
-13.980665,0.074111
-14.996989,0.080737
-15.985749,0.087141
-16.974613,0.093520
-17.990831,0.100370
-18.979698,0.106884
-19.995966,0.113603
-20.984779,0.119964
-21.973593,0.126423
-22.989862,0.133039
-23.978676,0.139705
-24.994999,0.146091
-25.983759,0.152676
-27.000082,0.159379
-27.988842,0.165679
-28.977654,0.172419
-29.993923,0.178999
-30.982737,0.185556
-31.999060,0.192253
-32.987873,0.198468
-33.976685,0.205170
-34.992954,0.211812
-35.981770,0.218449
-36.998093,0.224692
-37.986855,0.231414
-38.975719,0.238100
-39.991932,0.244648
-40.980801,0.250987
-41.997017,0.257682
-42.985882,0.264330
-43.974697,0.270378
-44.990967,0.277394
-45.979778,0.283502
-46.996048,0.290511
-47.984913,0.296925
-48.973728,0.303417
-49.989998,0.309761
-50.978813,0.316613
-51.995083,0.322980
-52.983894,0.329611
-54.000217,0.336288
-54.989029,0.342674
-55.977844,0.349184
-56.994110,0.355955
-57.982929,0.362047
-58.999199,0.368853
-59.988010,0.375493
-60.976871,0.381800
-61.993145,0.388803
-62.981956,0.395063
-63.998226,0.401717
-64.987038,0.408532
-65.975906,0.414445
-66.992180,0.421308
-67.980995,0.427812
-68.997253,0.434470
-69.986069,0.440742
-70.974884,0.447441
-71.991211,0.454043
-72.980019,0.460249
-73.996292,0.467140
-74.985161,0.473694
-75.973915,0.480009
-76.990234,0.486719
-77.979050,0.493112
-78.995323,0.499817
-79.984192,0.506465
-81.000404,0.512830
-81.989273,0.519547
-82.978142,0.526005
-83.994354,0.532803
-84.983215,0.539004
-85.999489,0.545632
-86.988304,0.552296
-87.977112,0.558449
-88.993439,0.565525
-89.982254,0.571789
-90.998520,0.578338
-91.987381,0.584776
-92.976151,0.591481
-93.992470,0.598238
-94.981339,0.604463
-95.997551,0.610998
-96.986420,0.617667
-97.975182,0.623910
-98.991501,0.630580
-99.980316,0.636947
-100.996635,0.643703
-101.985451,0.650227
-103.001717,0.657015
-103.990585,0.663281
-104.979347,0.669676
-105.995674,0.676096
-106.984535,0.682928
-108.000801,0.689525
-108.989616,0.695735
-109.978432,0.702182
-110.994759,0.708821
-111.983620,0.715623
-112.999840,0.722224
-113.988701,0.728612
-114.977516,0.735376
-115.993790,0.741722
-116.982597,0.748181
-117.998917,0.754942
-118.987793,0.761364
-119.976540,0.767630
-120.992874,0.774553
-121.981682,0.780856
-122.998009,0.787722
-123.986816,0.793982
-124.975624,0.800384
-125.991959,0.806961
-126.980713,0.813477
-127.997040,0.820137
-128.985855,0.826868
-130.002182,0.833445
-130.991043,0.839919
-131.979797,0.846096
-132.996124,0.853020
-133.984924,0.859481
-135.001266,0.865911
-135.990128,0.872318
-136.978897,0.879198
-137.995209,0.885706
-138.984009,0.892332
-140.000351,0.898797
-140.989212,0.905282
-141.977966,0.911601
-142.994293,0.918265
-143.983093,0.924746
-144.999435,0.931592
-145.988190,0.938135
-146.977051,0.944183
-147.993378,0.951120
-148.982193,0.957546
-149.998520,0.964298
-150.987274,0.970901
-151.976135,0.977221
-152.992462,0.983868
-153.981277,0.990448
-154.997604,0.996874
-155.986404,1.003393
-157.002731,1.010292
-157.991592,1.016355
-158.980362,1.022939
-159.996674,1.029661
-160.985504,1.036224
-162.001816,1.042715
-162.990631,1.049120
-163.979446,1.056063
-164.995819,1.062272
-165.984589,1.069028
-167.000900,1.075707
-167.989716,1.081957
-168.978577,1.088485
-169.994904,1.095109
-170.983719,1.101626
-172.000046,1.108222
-172.988800,1.114975
-173.977661,1.121442
-174.993927,1.127619
-175.982803,1.134542
-176.999130,1.141203
-177.987946,1.147742
-178.976807,1.153914
-179.993011,1.160882
-180.981888,1.166929
-181.998260,1.173931
-182.987030,1.179918
-184.003342,1.186795
-184.992157,1.193437
-185.981033,1.199704
-186.997345,1.206447
-187.986160,1.213161
-189.002487,1.219911
-189.991287,1.226336
-190.980164,1.232298
-191.996368,1.239718
-192.985306,1.245519
-194.001617,1.252431
-194.990387,1.258885
-195.979248,1.265596
-196.995514,1.271902
-197.984390,1.278640
-199.000702,1.285018
-199.989532,1.291537
-200.978394,1.298158
-201.994644,1.304867
-202.983521,1.311084
-203.999786,1.317824
-204.988647,1.324315
-206.004990,1.331112
-206.993790,1.337482
-207.982666,1.343984
-208.998932,1.350487
-209.987793,1.357453
-211.004120,1.363631
-211.992920,1.370452
-212.981796,1.376433
-213.998062,1.383435
-214.986923,1.389816
-216.003265,1.396364
-216.992065,1.403075
-217.980942,1.409778
-218.997208,1.416344
-219.986069,1.422765
-221.002350,1.429173
-221.991211,1.435780
-222.980072,1.442467
-223.996338,1.449152
-224.985199,1.455523
-226.001480,1.462144
-226.990341,1.468192
-227.979218,1.475735
-228.995483,1.481625
-229.984344,1.488368
-231.000626,1.494744
-231.989487,1.501611
-233.005737,1.507959
-233.994614,1.514786
-234.983490,1.521520
-235.999741,1.527682
-236.988617,1.534463
-238.004898,1.540958
-238.993744,1.547678
-239.982620,1.553649
-240.998901,1.560502
-241.987823,1.566614
-243.004013,1.574075
-243.992950,1.580246
-244.981827,1.586717
-245.998077,1.593617
-246.986954,1.599852
-248.003220,1.607033
-248.992081,1.612857
-249.980896,1.619988
-250.997223,1.625923
-251.986099,1.633046
-253.002350,1.639253
-253.991226,1.645978
-254.980042,1.652331
-255.996399,1.659037
-256.985291,1.665306
