2,Porsche Mission R,baseline
Steering Wheel Angle,Yaw Rate
294.973328,1.675551
293.941254,1.675897
292.942474,1.677268
291.943726,1.673811
290.911652,1.669465
289.912903,1.664808
288.914154,1.658973
287.882080,1.652883
286.883301,1.646999
285.884552,1.639954
284.852478,1.633458
283.853729,1.627742
282.854980,1.621993
281.822876,1.616513
280.824127,1.610508
279.825317,1.604508
278.793304,1.598640
277.794556,1.592964
276.795776,1.587127
275.763702,1.580972
274.764984,1.575137
273.766174,1.569468
272.734131,1.563561
271.735382,1.557683
270.736603,1.552201
269.704529,1.546044
268.705780,1.540359
267.707001,1.534533
266.674927,1.528531
265.676178,1.522825
264.677399,1.517055
263.645355,1.510965
262.646576,1.505187
261.647827,1.499561
260.615753,1.493484
259.617004,1.487931
258.584900,1.481680
257.586182,1.476001
256.587372,1.470252
255.555344,1.464274
254.556549,1.458365
253.557785,1.452686
252.525742,1.446747
251.526947,1.440918
250.528183,1.435120
249.496140,1.429110
248.497330,1.423376
247.498581,1.417638
246.466522,1.411713
245.467773,1.406150
244.468964,1.400260
243.436951,1.394111
242.438156,1.388598
241.439392,1.382795
240.407318,1.376777
239.408585,1.371066
238.409760,1.365433
237.377716,1.359279
236.378922,1.353421
235.380157,1.347799
234.348114,1.342003
233.349335,1.336214
232.350586,1.330366
231.318527,1.324375
230.319733,1.318671
229.320969,1.313055
228.288895,1.306857
227.290115,1.301123
226.291382,1.295477
225.259277,1.289382
224.260529,1.283690
223.261749,1.277786
222.229706,1.271885
221.230927,1.266021
220.232147,1.260501
219.200073,1.254607
218.201324,1.248603
217.202515,1.242926
216.170486,1.237075
215.171677,1.231500
214.172928,1.225351
213.140839,1.219704
212.142090,1.213826
211.143280,1.208164
210.111252,1.202004
209.112442,1.196415
208.113693,1.190518
207.081604,1.184547
206.082840,1.179095
205.050766,1.173075
204.052017,1.167334
203.053238,1.161565
202.021164,1.155487
201.022385,1.149712
200.023605,1.144210
198.991516,1.137912
197.992783,1.132203
196.994003,1.126616
195.961929,1.120508
194.963150,1.114833
193.964371,1.109142
192.932281,1.103339
191.933533,1.097379
190.934753,1.091590
189.902695,1.085772
188.903946,1.080197
187.905136,1.074272
186.873108,1.068185
185.874298,1.062588
184.875549,1.056760
183.843445,1.050880
182.844696,1.045056
181.845901,1.039359
180.813843,1.033579
179.815063,1.027842
178.816269,1.021998
177.784180,1.016017
176.785431,1.010242
175.786636,1.004559
174.754608,0.998664
173.755783,0.992875
172.757034,0.987073
171.724945,0.981119
170.726196,0.975390
169.727371,0.969767
168.695328,0.963796
167.696548,0.957964
166.697769,0.952269
165.665665,0.946615
164.666916,0.940693
163.668106,0.934866
162.636078,0.929107
161.637283,0.923303
160.638535,0.917464
159.606430,0.911583
158.607651,0.905795
157.608841,0.900049
156.576813,0.894025
155.578003,0.888361
154.545944,0.882461
153.547165,0.876768
152.548386,0.870931
151.516296,0.864995
150.517532,0.859365
149.518738,0.853526
148.486664,0.847548
147.487885,0.842015
146.489105,0.836192
145.457016,0.830059
144.458267,0.824503
143.459503,0.818609
142.427399,0.812736
141.428650,0.807254
140.429840,0.801286
139.397781,0.795473
138.399002,0.789632
137.400223,0.783798
136.368118,0.777963
135.369385,0.772220
134.370560,0.766678
133.338501,0.760745
132.339691,0.754883
131.340958,0.749115
130.308853,0.743173
129.310074,0.737420
128.311264,0.731713
127.279228,0.725902
126.280426,0.720080
125.281647,0.714278
124.249550,0.708499
123.250801,0.702674
122.251991,0.696802
121.219940,0.691066
120.221115,0.685294
119.222366,0.679476
118.190239,0.673768
117.191505,0.667851
116.192688,0.662130
115.160629,0.655985
114.161819,0.650362
113.163063,0.644576
112.130974,0.638746
111.132202,0.633197
110.133385,0.627454
109.101326,0.621355
108.102509,0.615756
107.103767,0.609951
106.071671,0.604004
105.072891,0.598391
104.074081,0.592488
103.042015,0.586724
102.043213,0.580830
101.011185,0.574984
100.012398,0.569246
99.013596,0.563532
97.981529,0.557716
96.982719,0.551928
95.983971,0.546069
94.951881,0.540243
93.953102,0.534441
92.954285,0.528692
91.922226,0.522980
90.923409,0.516925
89.924667,0.511425
88.892548,0.505561
87.893791,0.499936
86.894981,0.493913
85.862923,0.488067
84.864113,0.482412
83.865334,0.476518
82.833237,0.470635
81.834457,0.464885
80.835648,0.459221
79.803581,0.453186
78.804771,0.447728
77.806030,0.442006
76.773903,0.435774
75.775154,0.430203
74.776337,0.424491
73.744286,0.418572
72.745476,0.412820
71.746696,0.407069
70.714600,0.401101
69.715820,0.395279
68.717003,0.389714
67.684944,0.383697
66.686142,0.378127
65.687355,0.372202
64.655266,0.366538
63.656487,0.360697
62.657673,0.354968
61.625610,0.348928
60.626797,0.343226
59.628021,0.337558
58.595932,0.331578
57.597145,0.325961
56.598400,0.319974
55.566277,0.314305
54.567528,0.308460
53.568687,0.302710
52.536625,0.296960
51.537811,0.291020
50.505753,0.285369
49.506939,0.279326
48.508160,0.273571
47.476070,0.267696
46.477287,0.262203
45.478477,0.256358
44.446415,0.250508
43.447601,0.244663
42.448826,0.238846
41.416702,0.233127
40.417953,0.227249
39.419140,0.221411
38.387077,0.215568
37.388233,0.209796
36.389488,0.204009
35.357365,0.198221
34.358585,0.192652
33.359772,0.186670
32.327709,0.180757
31.328901,0.175277
30.330120,0.169314
29.297997,0.163621
28.299248,0.157712
27.300406,0.151830
26.268345,0.145987
25.269531,0.140327
24.270754,0.134753
23.238661,0.128698
22.239880,0.122739
21.241070,0.117353
20.209009,0.111153
19.210163,0.105637
18.211416,0.099769
17.179293,0.093929
16.180511,0.088231
15.181702,0.082346
14.149640,0.076706
13.150796,0.070758
12.152049,0.065132
11.119988,0.059210
10.121144,0.053245
9.122396,0.047735
8.090272,0.041696
7.091493,0.036072
6.092681,0.030244
5.060620,0.024358
4.061809,0.018986
3.062997,0.014688
2.030904,0.010057
1.032093,0.005591
0.000000,0.001733
-0.998747,0.003499
-1.997624,0.007979
-3.029652,0.012995
-4.028464,0.018758
-5.027276,0.024521
-6.059368,0.030561
-7.058115,0.036258
-8.056992,0.041974
-9.089020,0.047904
-10.087896,0.053686
-11.086643,0.059313
-12.118735,0.065129
-13.117547,0.071143
-14.116360,0.076658
-15.148452,0.082779
-16.147263,0.088483
-17.146011,0.094238
-18.178169,0.099920
-19.176916,0.105897
-20.175728,0.111655
-21.207819,0.117344
-22.206633,0.123252
-23.205444,0.128676
-24.237535,0.134940
-25.236284,0.140526
-26.235159,0.146422
-27.267187,0.152035
-28.266064,0.158063
-29.264811,0.163572
-30.296968,0.169529
-31.295717,0.175278
-32.294464,0.181027
-33.326618,0.186918
-34.325367,0.192793
-35.324245,0.198411
-36.356274,0.204315
-37.355083,0.210019
-38.353897,0.215830
-39.385986,0.221747
-40.384800,0.227363
-41.383614,0.233265
-42.415703,0.239365
-43.414516,0.244760
-44.413265,0.250629
-45.445419,0.256574
-46.444168,0.262313
-47.443043,0.267926
-48.475071,0.274091
-49.473949,0.279757
-50.472694,0.285406
-51.504852,0.291346
-52.503601,0.296987
-53.535759,0.302749
-54.534504,0.308697
-55.533318,0.314509
-56.565411,0.320464
-57.564224,0.326028
-58.563034,0.331923
-59.595127,0.337848
-60.593937,0.343602
-61.592751,0.349411
-62.624840,0.355297
-63.623653,0.360803
-64.622467,0.366637
-65.654556,0.372515
-66.653366,0.378377
-67.652184,0.384144
-68.684273,0.389991
-69.683090,0.395730
-70.681831,0.401539
-71.713989,0.407338
-72.712738,0.413199
-73.711617,0.418922
-74.743645,0.424870
-75.742516,0.430418
-76.741264,0.436305
-77.773361,0.442210
-78.772171,0.448094
-79.770981,0.453799
-80.803070,0.459436
-81.801888,0.465353
-82.800697,0.471032
-83.832787,0.476993
-84.831604,0.482746
-85.830414,0.488493
-86.862572,0.494292
-87.861313,0.500125
-88.860130,0.505717
-89.892227,0.511817
-90.891098,0.517523
-91.889847,0.523292
-92.921997,0.529225
-93.920753,0.534924
-94.919624,0.540602
-95.951653,0.546324
-96.950531,0.552326
-97.949280,0.558049
-98.981438,0.563709
-99.980179,0.569719
-100.979065,0.575483
-102.011093,0.581289
-103.009964,0.587131
-104.008705,0.592878
-105.040863,0.598620
-106.039619,0.604294
-107.071777,0.610361
-108.070587,0.616040
-109.069389,0.621754
-110.101486,0.627744
-111.100304,0.633326
-112.099113,0.639212
-113.131271,0.645075
-114.130020,0.650887
-115.128899,0.656693
-116.160927,0.662613
-117.159798,0.668373
-118.158554,0.674021
-119.190704,0.679896
-120.189453,0.685539
-121.188255,0.691158
-122.220421,0.697301
-123.219162,0.703134
-124.218033,0.708838
-125.250061,0.714704
-126.248947,0.720343
-127.247688,0.726176
-128.279846,0.732209
-129.278656,0.737834
-130.277481,0.743668
-131.309555,0.749629
-132.308380,0.755309
-133.307190,0.761122
-134.339355,0.766991
-135.338089,0.772541
-136.336975,0.778321
-137.369003,0.784448
-138.367874,0.789989
-139.366684,0.795878
-140.398773,0.801819
-141.397583,0.807545
-142.396408,0.813258
-143.428497,0.818951
-144.427368,0.824855
-145.426117,0.830601
-146.458282,0.836740
-147.457077,0.842244
-148.455902,0.848112
-149.487991,0.854040
-150.486877,0.859754
-151.485611,0.865546
-152.517776,0.871235
-153.516525,0.877181
-154.515396,0.882982
-155.547485,0.888828
-156.546295,0.894414
-157.578400,0.900555
-158.577271,0.906264
-159.576004,0.912009
-160.608170,0.917927
-161.606918,0.923728
-162.605804,0.929264
-163.637894,0.935238
-164.636765,0.940905
-165.635513,0.946801
-166.667603,0.952795
-167.666428,0.958462
-168.665222,0.964143
-169.697372,0.970204
-170.696136,0.975995
-171.695007,0.981724
-172.727097,0.987545
-173.725922,0.993138
-174.724731,0.999195
-175.756882,1.005183
-176.755630,1.010599
-177.754501,1.016505
-178.786606,1.022423
-179.785477,1.028197
-180.784225,1.034052
-181.816376,1.039944
-182.815125,1.045791
-183.813995,1.051404
-184.846100,1.057270
-185.844971,1.062907
-186.843719,1.068830
-187.875870,1.074860
-188.874695,1.080616
-189.873505,1.086274
-190.905594,1.092212
-191.904465,1.097974
-192.903214,1.103675
-193.935364,1.109759
-194.934189,1.115417
-195.933060,1.121061
-196.965088,1.127122
-197.963959,1.132782
-198.962769,1.138623
-199.994934,1.144660
-200.993683,1.150134
-201.992554,1.155972
-203.024643,1.162031
-204.023468,1.167626
-205.022263,1.173649
-206.054428,1.179433
-207.053177,1.185031
-208.085403,1.191127
-209.084137,1.196900
-210.082886,1.202721
-211.115112,1.208673
-212.113861,1.214299
-213.112732,1.220073
-214.144836,1.225954
-215.143646,1.231830
-216.142456,1.237654
-217.174606,1.243619
-218.173355,1.249292
-219.172241,1.255276
-220.204330,1.260991
-221.203201,1.266930
-222.201950,1.272639
-223.234177,1.278609
-224.232925,1.284334
-225.231796,1.290227
-226.263885,1.296100
-227.262772,1.301570
-228.261505,1.307637
-229.293671,1.313630
-230.292496,1.319398
-231.291367,1.325092
-232.323380,1.331049
-233.322250,1.336904
-234.321075,1.342553
-235.353226,1.348457
-236.351990,1.354358
-237.350861,1.360062
-238.382965,1.365972
-239.381836,1.371764
-240.380569,1.377592
-241.412811,1.383505
-242.411545,1.389287
-243.410416,1.394965
-244.442505,1.400957
-245.441391,1.406731
-246.440125,1.412538
-247.472305,1.418495
-248.471100,1.424244
-249.469971,1.430188
-250.502060,1.436055
-251.500946,1.441878
-252.499710,1.447573
-253.531860,1.453513
-254.530670,1.459177
-255.529404,1.464961
-256.561554,1.470998
-257.560394,1.476708
-258.559265,1.482534
-259.591339,1.488552
-260.590240,1.494344
-261.622253,1.500155
-262.621124,1.506135
-263.619934,1.511855
-264.652100,1.517902
-265.650909,1.523571
-266.649780,1.529291
-267.681824,1.535282
-268.680695,1.540844
-269.679504,1.546957
-270.711670,1.552880
-271.710449,1.558641
-272.709351,1.564407
-273.741425,1.570087
-274.740295,1.576261
-275.739075,1.582026
-276.771210,1.587937
-277.770050,1.593756
-278.768921,1.599440
-279.800995,1.605544
-280.799866,1.611267
-281.798615,1.617071
-282.830841,1.623129
-283.829590,1.628659
-284.828461,1.634568
-285.860565,1.640626
-286.859436,1.646339
-287.858246,1.652127
-288.890411,1.658258
-289.889130,1.663967
-290.888000,1.669774
-291.920105,1.675645
-292.918976,1.680342
-293.917816,1.680324
-294.949951,1.680339
