2,Radical SR8,baseline
Steering Wheel Angle,Yaw Rate
235.003296,2.516473
234.014542,2.506552
233.025772,2.496644
232.009491,2.488979
231.020752,2.480604
230.004471,2.470206
229.015686,2.458855
227.999451,2.447408
227.010681,2.436287
226.021896,2.425076
225.005646,2.412799
224.016876,2.402448
223.000626,2.390184
222.011841,2.379289
221.023071,2.368974
220.006836,2.356880
219.018051,2.345776
218.001816,2.335585
217.013016,2.323553
216.024261,2.312633
215.007996,2.302250
214.019226,2.291109
213.002960,2.279600
212.014175,2.268434
211.025421,2.258315
210.009140,2.246473
209.020386,2.235833
208.004135,2.225870
207.015366,2.213396
206.026566,2.203224
205.010300,2.192065
204.021530,2.180202
203.005295,2.169740
202.016510,2.158744
201.000275,2.147474
200.011475,2.136221
199.022705,2.125850
198.006454,2.113929
197.017670,2.103183
196.001419,2.093010
195.012619,2.081074
194.023849,2.070499
193.007599,2.059424
192.018814,2.048281
191.002563,2.037282
190.013794,2.026796
189.024994,2.015381
188.008728,2.004394
187.019974,1.994473
186.003708,1.982552
185.014938,1.971632
184.026154,1.960915
183.009888,1.951050
182.021133,1.940217
181.004852,1.928066
180.016098,1.917027
178.999817,1.905895
178.011047,1.895114
177.022247,1.885089
176.005981,1.873596
175.017227,1.862422
174.000961,1.851248
173.012192,1.840899
172.023392,1.831096
171.007111,1.819341
170.018356,1.808746
169.002075,1.796901
168.013321,1.786276
167.024506,1.775968
166.008270,1.765760
165.019485,1.754896
164.003220,1.742711
163.014450,1.731598
162.025650,1.721387
161.009415,1.710661
160.020615,1.700520
159.004333,1.688473
158.015564,1.677922
157.026764,1.667877
156.010544,1.656639
155.021729,1.646198
154.005478,1.634161
153.016708,1.624390
152.000443,1.612800
151.011673,1.601532
150.022858,1.591306
149.006622,1.579976
148.017822,1.569671
147.001556,1.558143
146.012772,1.547835
145.023972,1.536931
144.007736,1.526209
143.018936,1.515818
142.002655,1.504940
141.013901,1.493970
140.025085,1.483936
139.008850,1.472776
138.020050,1.461510
137.003769,1.450938
136.014999,1.439364
135.026199,1.428875
134.009964,1.417447
133.021164,1.407109
132.004913,1.396799
131.016113,1.385625
130.027283,1.375178
129.011078,1.364432
128.022263,1.354053
127.006020,1.342320
126.017204,1.331922
125.000938,1.321109
124.012169,1.309944
123.023369,1.299495
122.007118,1.289332
121.018311,1.277635
120.002029,1.267301
119.013283,1.256857
118.024460,1.245375
117.008224,1.234391
116.019402,1.224465
115.003166,1.212697
114.014351,1.202369
113.025566,1.192199
112.009323,1.181064
111.020508,1.170495
110.004265,1.159341
109.015457,1.148593
108.026642,1.137780
107.010399,1.126769
106.021584,1.116279
105.005371,1.105686
104.016556,1.094912
103.027771,1.084573
102.011497,1.072932
101.022690,1.062817
100.006439,1.052115
99.017632,1.041704
98.001389,1.030344
97.012573,1.020229
96.023758,1.008510
95.007515,0.997839
94.018700,0.987712
93.002457,0.976374
92.013649,0.966110
91.024887,0.954892
90.008591,0.943943
89.019775,0.933850
88.003563,0.922531
87.014717,0.911743
86.025963,0.901412
85.009674,0.890576
84.020859,0.880340
83.004631,0.869656
82.015800,0.858389
81.027039,0.847790
80.010742,0.837231
79.021935,0.826009
78.005684,0.815151
77.016876,0.804711
76.000633,0.794557
75.011818,0.783784
74.023056,0.773137
73.006760,0.761633
72.017944,0.750956
71.001701,0.740347
70.012894,0.730123
69.024109,0.718667
68.007835,0.708025
67.018997,0.697604
66.002754,0.687391
65.013939,0.676306
64.025177,0.665160
63.008881,0.655246
62.020069,0.644543
61.003826,0.633047
60.015011,0.622366
59.026226,0.612424
58.009926,0.601049
57.021172,0.590337
56.004875,0.580017
55.016060,0.569055
54.027275,0.558794
53.011005,0.547591
52.022217,0.537300
51.005924,0.526526
50.017109,0.516339
49.000866,0.504727
48.012054,0.494685
47.023270,0.484478
46.006969,0.472909
45.018211,0.463003
44.001915,0.452130
43.013073,0.440986
42.024315,0.430825
41.008018,0.419198
40.019230,0.408916
39.002964,0.398566
38.014122,0.387977
37.025364,0.376803
36.009068,0.366062
35.020279,0.356134
34.003983,0.345127
33.015167,0.334122
32.026382,0.323893
31.010088,0.313401
30.021326,0.302439
29.005032,0.291356
28.016247,0.281094
27.027433,0.270058
26.011137,0.259470
25.022348,0.249127
24.006052,0.237996
23.017294,0.227442
22.000998,0.216972
21.012157,0.205987
20.023371,0.195736
19.007101,0.184945
18.018314,0.174828
17.002018,0.163533
16.013233,0.152785
15.024419,0.142562
14.008123,0.131023
13.019336,0.120763
12.003040,0.110272
11.014254,0.099516
10.025441,0.088901
9.009144,0.078337
8.020358,0.067983
7.004062,0.056893
6.015275,0.046014
5.026462,0.036229
4.010166,0.024379
3.021353,0.017080
2.005083,0.010171
1.016323,0.003365
0.000000,0.003840
-0.988760,0.010422
-1.977626,0.017264
-2.993896,0.024308
-3.982709,0.031203
-4.998979,0.038044
-5.987792,0.045790
-6.976604,0.056315
-7.992875,0.067174
-8.981688,0.077305
-9.997957,0.088826
-10.986771,0.098750
-11.975583,0.109115
-12.991853,0.120519
-13.980665,0.130541
-14.996989,0.141371
-15.985749,0.152503
-16.974613,0.162493
-17.990831,0.173704
-18.979698,0.184591
-19.995966,0.195331
-20.984779,0.205683
-21.973593,0.215822
-22.989862,0.227364
-23.978676,0.237828
-24.994999,0.248303
-25.983759,0.259315
-27.000082,0.270246
-27.988842,0.280512
-28.977654,0.291266
-29.993923,0.301906
-30.982737,0.312199
-31.999060,0.323409
-32.987873,0.333776
-33.976685,0.343679
-34.992954,0.355148
-35.981770,0.365242
-36.998093,0.376116
-37.986855,0.387017
-38.975719,0.397165
-39.991932,0.408353
-40.980801,0.419060
-41.997017,0.430219
-42.985882,0.440383
-43.974697,0.450588
-44.990967,0.461402
-45.979778,0.472338
-46.996048,0.483718
-47.984913,0.494237
-48.973728,0.504484
-49.989998,0.514870
-50.978813,0.525544
-51.995083,0.536822
-52.983894,0.547594
-54.000217,0.558039
-54.989029,0.568314
-55.977844,0.579452
-56.994110,0.590477
-57.982929,0.600988
-58.999199,0.611423
-59.988010,0.621653
-60.976871,0.633030
-61.993145,0.643729
-62.981956,0.653843
-63.998226,0.664415
-64.987038,0.675491
-65.975906,0.686564
-66.992180,0.697275
-67.980995,0.707337
-68.997253,0.717955
-69.986069,0.729374
-70.974884,0.740073
-71.991211,0.750982
-72.980019,0.761672
-73.996292,0.771970
-74.985161,0.783013
-75.973915,0.793766
-76.990234,0.804365
-77.979050,0.814932
-78.995323,0.825345
-79.984192,0.836136
-81.000404,0.847312
-81.989273,0.857527
-82.978142,0.868193
-83.994354,0.879344
-84.983215,0.890035
-85.999489,0.900727
-86.988304,0.910724
-87.977112,0.921692
-88.993439,0.932788
-89.982254,0.943106
-90.998520,0.954472
-91.987381,0.965354
-92.976151,0.975289
-93.992470,0.986533
-94.981339,0.997630
-95.997551,1.007784
-96.986420,1.018819
-97.975182,1.029691
-98.991501,1.040174
-99.980316,1.051458
-100.996635,1.062413
-101.985451,1.072615
-103.001717,1.083874
-103.990585,1.094507
-104.979347,1.105066
-105.995674,1.115853
-106.984535,1.125959
-108.000801,1.136725
-108.989616,1.147521
-109.978432,1.158644
-110.994759,1.168960
-111.983620,1.179756
-112.999840,1.191390
-113.988701,1.201370
-114.977516,1.212608
-115.993790,1.223864
-116.982597,1.233883
-117.998917,1.244564
-118.987793,1.255215
-119.976540,1.266131
-120.992874,1.277652
-121.981682,1.288381
-122.998009,1.298466
-123.986816,1.309524
-124.975624,1.320199
-125.991959,1.330413
-126.980713,1.341994
-127.997040,1.352438
-128.985855,1.362990
-130.002182,1.374650
-130.991043,1.385208
-131.979797,1.395484
-132.996124,1.406839
-133.984924,1.417299
-135.001266,1.428365
-135.990128,1.438257
-136.978897,1.448819
-137.995209,1.460531
-138.984009,1.471320
-140.000351,1.481889
-140.989212,1.492227
-141.977966,1.502774
-142.994293,1.514219
-143.983093,1.525450
-144.999435,1.536246
-145.988190,1.546148
-146.977051,1.557217
-147.993378,1.568841
-148.982193,1.579159
-149.998520,1.590576
-150.987274,1.601335
-151.976135,1.611283
-152.992462,1.622858
-153.981277,1.633587
-154.997604,1.644109
-155.986404,1.654488
-157.002731,1.666193
-157.991592,1.676855
-158.980362,1.687374
-159.996674,1.697719
-160.985504,1.709131
-162.001816,1.719574
-162.990631,1.731413
-163.979446,1.742038
-164.995819,1.752344
-165.984589,1.763983
-167.000900,1.774422
-167.989716,1.785581
-168.978577,1.795591
-169.994904,1.807444
-170.983719,1.817978
-172.000046,1.828453
-172.988800,1.839812
-173.977661,1.850659
-174.993927,1.861145
-175.982803,1.872532
-176.999130,1.883703
-177.987946,1.893669
-178.976807,1.904704
-179.993011,1.915318
-180.981888,1.926123
-181.998260,1.938089
-182.987030,1.948773
-184.003342,1.960057
-184.992157,1.969614
-185.981033,1.981295
-186.997345,1.992764
-187.986160,2.003356
-189.002487,2.014867
-189.991287,2.025339
-190.980164,2.035624
-191.996368,2.047442
-192.985306,2.058317
-194.001617,2.068681
-194.990387,2.080122
-195.979248,2.091087
-196.995514,2.101866
-197.984390,2.113133
-199.000702,2.123316
-199.989532,2.133850
-200.978394,2.145502
-201.994644,2.156926
-202.983521,2.167067
-203.999786,2.179131
-204.988647,2.189896
-206.004990,2.201031
-206.993790,2.211929
-207.982666,2.222047
-208.998932,2.232903
-209.987793,2.244253
-211.004120,2.255075
-211.992920,2.266661
-212.981796,2.277947
-213.998062,2.288331
-214.986923,2.300338
-216.003265,2.311582
-216.992065,2.321412
-217.980942,2.333311
-218.997208,2.344696
-219.986069,2.354776
-221.002350,2.365482
-221.991211,2.375814
-222.980072,2.386961
-223.996338,2.399262
-224.985199,2.409036
-226.001480,2.420362
-226.990341,2.432798
-227.979218,2.443915
-228.995483,2.454825
-229.984344,2.466464
-231.000626,2.477736
-231.989487,2.487546
-233.005737,2.499193
-233.994614,2.510167
-234.983490,2.521084
