2,Ray Formula 1600,baseline
Steering Wheel Angle,Yaw Rate
193.964371,2.420491
192.932281,2.405100
191.933533,2.391357
190.934753,2.377966
189.902695,2.363834
188.903946,2.350494
187.905136,2.337089
186.873108,2.322903
185.874298,2.309218
184.875549,2.295408
183.843445,2.281474
182.844696,2.268117
181.845901,2.254553
180.813843,2.240680
179.815063,2.226914
178.816269,2.213380
177.784180,2.199665
176.785431,2.186466
175.786636,2.173050
174.754608,2.159404
173.755783,2.145900
172.757034,2.132310
171.724945,2.118671
170.726196,2.105520
169.727371,2.092311
168.695328,2.078563
167.696548,2.065334
166.697769,2.052248
165.665665,2.038465
164.666916,2.025309
163.668106,2.012104
162.636078,1.998737
161.637283,1.985654
160.638535,1.972667
159.606430,1.959198
158.607651,1.946114
157.608841,1.932930
156.576813,1.919368
155.578003,1.906501
154.545944,1.892962
153.547165,1.879968
152.548386,1.867174
151.516296,1.853845
150.517532,1.840912
149.518738,1.827986
148.486664,1.814376
147.487885,1.801532
146.489105,1.788895
145.457016,1.775612
144.458267,1.762719
143.459503,1.750156
142.427399,1.736850
141.428650,1.724267
140.429840,1.711519
139.397781,1.698312
138.399002,1.685754
137.400223,1.672769
136.368118,1.659598
135.369385,1.646781
134.370560,1.634037
133.338501,1.620979
132.339691,1.608252
131.340958,1.595481
130.308853,1.582409
129.310074,1.569876
128.311264,1.557407
127.279228,1.544204
126.280426,1.531639
125.281647,1.519282
124.249550,1.506488
123.250801,1.493706
122.251991,1.481067
121.219940,1.468067
120.221115,1.455443
119.222366,1.442917
118.190239,1.430210
117.191505,1.418031
116.192688,1.405267
115.160629,1.392309
114.161819,1.379973
113.163063,1.367385
112.130974,1.354581
111.132202,1.342113
110.133385,1.329553
109.101326,1.316825
108.102509,1.304528
107.103767,1.292129
106.071671,1.279116
105.072891,1.266998
104.074081,1.254566
103.042015,1.241737
102.043213,1.229529
101.011185,1.216617
100.012398,1.204419
99.013596,1.192173
97.981529,1.179556
96.982719,1.167071
95.983971,1.154800
94.951881,1.142374
93.953102,1.129837
92.954285,1.117511
91.922226,1.105086
90.923409,1.092630
89.924667,1.080139
88.892548,1.067610
87.893791,1.055579
86.894981,1.043315
85.862923,1.030542
84.864113,1.018545
83.865334,1.006575
82.833237,0.993936
81.834457,0.981626
80.835648,0.969507
79.803581,0.956946
78.804771,0.944676
77.806030,0.932377
76.773903,0.919926
75.775154,0.907802
74.776337,0.895751
73.744286,0.883183
72.745476,0.870986
71.746696,0.858890
70.714600,0.846247
69.715820,0.834285
68.717003,0.822339
67.684944,0.809892
66.686142,0.797696
65.687355,0.785542
64.655266,0.773190
63.656487,0.761096
62.657673,0.749025
61.625610,0.736429
60.626797,0.724376
59.628021,0.712446
58.595932,0.700031
57.597145,0.688017
56.598400,0.675762
55.566277,0.663218
54.567528,0.651270
53.568687,0.639372
52.536625,0.627082
51.537811,0.614958
50.505753,0.602641
49.506939,0.590723
48.508160,0.578530
47.476070,0.566034
46.477287,0.554185
45.478477,0.542166
44.446415,0.529832
43.447601,0.517847
42.448826,0.505811
41.416702,0.493640
40.417953,0.481529
39.419140,0.469593
38.387077,0.457260
37.388233,0.445294
36.389488,0.433296
35.357365,0.420936
34.358585,0.408924
33.359772,0.397084
32.327709,0.384871
31.328901,0.372953
30.330120,0.361023
29.297997,0.348525
28.299248,0.336655
27.300406,0.324624
26.268345,0.312405
25.269531,0.300459
24.270754,0.288474
23.238661,0.276201
22.239880,0.264101
21.241070,0.252185
20.209009,0.239819
19.210163,0.228161
18.211416,0.216279
17.179293,0.203710
16.180511,0.191894
15.181702,0.179814
14.149640,0.167529
13.150796,0.155814
12.152049,0.143849
11.119988,0.131537
10.121144,0.119456
9.122396,0.107677
8.090272,0.095448
7.091493,0.083604
6.092681,0.071702
5.060620,0.059267
4.061809,0.047282
3.062997,0.035626
2.030904,0.023165
1.032093,0.011399
0.000000,0.002848
-0.998747,0.012845
-1.997624,0.024620
-3.029652,0.036924
-4.028464,0.048811
-5.027276,0.060793
-6.059368,0.073226
-7.058115,0.085003
-8.056992,0.096844
-9.089020,0.109016
-10.087896,0.121049
-11.086643,0.133185
-12.118735,0.145523
-13.117547,0.157266
-14.116360,0.169029
-15.148452,0.181385
-16.147263,0.193345
-17.146011,0.205166
-18.178169,0.217617
-19.176916,0.229361
-20.175728,0.241313
-21.207819,0.253775
-22.206633,0.265650
-23.205444,0.277620
-24.237535,0.289918
-25.236284,0.301813
-26.235159,0.313780
-27.267187,0.326175
-28.266064,0.337968
-29.264811,0.349725
-30.296968,0.362126
-31.295717,0.374092
-32.294464,0.386073
-33.326618,0.398381
-34.325367,0.410433
-35.324245,0.422306
-36.356274,0.434600
-37.355083,0.446658
-38.353897,0.458431
-39.385986,0.470901
-40.384800,0.483044
-41.383614,0.494935
-42.415703,0.507224
-43.414516,0.519105
-44.413265,0.531335
-45.445419,0.543578
-46.444168,0.555522
-47.443043,0.567572
-48.475071,0.580062
-49.473949,0.592000
-50.472694,0.603997
-51.504852,0.616335
-52.503601,0.628202
-53.535759,0.640898
-54.534504,0.652761
-55.533318,0.664762
-56.565411,0.677251
-57.564224,0.689194
-58.563034,0.701289
-59.595127,0.713896
-60.593937,0.725842
-61.592751,0.737895
-62.624840,0.750356
-63.623653,0.762425
-64.622467,0.774416
-65.654556,0.786850
-66.653366,0.798977
-67.652184,0.811031
-68.684273,0.823500
-69.683090,0.835626
-70.681831,0.847714
-71.713989,0.860237
-72.712738,0.872430
-73.711617,0.884653
-74.743645,0.897195
-75.742516,0.909175
-76.741264,0.921358
-77.773361,0.934028
-78.772171,0.946085
-79.770981,0.958260
-80.803070,0.970934
-81.801888,0.982999
-82.800697,0.994889
-83.832787,1.007667
-84.831604,1.019900
-85.830414,1.032156
-86.862572,1.044975
-87.861313,1.056900
-88.860130,1.069162
-89.892227,1.082016
-90.891098,1.094292
-91.889847,1.106395
-92.921997,1.119114
-93.920753,1.131334
-94.919624,1.143586
-95.951653,1.156317
-96.950531,1.168485
-97.949280,1.180750
-98.981438,1.193422
-99.980179,1.205846
-100.979065,1.218302
-102.011093,1.230984
-103.009964,1.243237
-104.008705,1.255800
-105.040863,1.268384
-106.039619,1.280781
-107.071777,1.293645
-108.070587,1.305884
-109.069389,1.318340
-110.101486,1.331236
-111.100304,1.343663
-112.099113,1.356137
-113.131271,1.369011
-114.130020,1.381428
-115.128899,1.393873
-116.160927,1.406752
-117.159798,1.419217
-118.158554,1.431656
-119.190704,1.444571
-120.189453,1.457192
-121.188255,1.469820
-122.220421,1.482788
-123.219162,1.495245
-124.218033,1.507670
-125.250061,1.520665
-126.248947,1.533469
-127.247688,1.546068
-128.279846,1.559211
-129.278656,1.571723
-130.277481,1.584178
-131.309555,1.597300
-132.308380,1.610180
-133.307190,1.622903
-134.339355,1.635841
-135.338089,1.648247
-136.336975,1.661230
-137.369003,1.674319
-138.367874,1.686849
-139.366684,1.699797
-140.398773,1.713047
-141.397583,1.725752
-142.396408,1.738701
-143.428497,1.751936
-144.427368,1.764863
-145.426117,1.777624
-146.458282,1.790715
-147.457077,1.803486
-148.455902,1.816598
-149.487991,1.830121
-150.486877,1.842978
-151.485611,1.855857
-152.517776,1.868899
-153.516525,1.881856
-154.515396,1.894959
-155.547485,1.908672
-156.546295,1.921798
-157.578400,1.935124
-158.577271,1.948020
-159.576004,1.961106
-160.608170,1.974416
-161.606918,1.987613
-162.605804,2.000648
-163.637894,2.014426
-164.636765,2.027497
-165.635513,2.040772
-166.667603,2.054465
-167.666428,2.067512
-168.665222,2.080799
-169.697372,2.094414
-170.696136,2.107703
-171.695007,2.121187
-172.727097,2.135066
-173.725922,2.148137
-174.724731,2.161493
-175.756882,2.175409
-176.755630,2.188658
-177.754501,2.202060
-178.786606,2.215991
-179.785477,2.229537
-180.784225,2.243009
-181.816376,2.256886
-182.815125,2.270272
-183.813995,2.283653
-184.846100,2.297793
-185.844971,2.311314
-186.843719,2.324903
-187.875870,2.338927
-188.874695,2.352452
-189.873505,2.366230
-190.905594,2.380215
-191.904465,2.393943
-192.903214,2.407670
-193.935364,2.421849
