2,RUF RT 12R AWD,baseline
Steering Wheel Angle,Yaw Rate
472.751526,2.951707
471.719452,2.966241
470.720764,2.976810
469.721985,2.975278
468.689972,2.970809
467.691223,2.963502
466.659149,2.956356
465.660400,2.949854
464.661682,2.943047
463.629669,2.940355
462.630920,2.933363
461.632141,2.922904
460.600128,2.915860
459.601379,2.909506
458.602631,2.903651
457.570587,2.897782
456.571869,2.891357
455.573090,2.884642
454.541046,2.878800
453.542328,2.871707
452.543579,2.864463
451.511505,2.857790
450.512787,2.851728
449.514038,2.844744
448.481995,2.837920
447.483276,2.831598
446.484497,2.825406
445.452484,2.817945
444.453705,2.811166
443.454987,2.804493
442.422974,2.798836
441.424194,2.792638
440.425476,2.785618
439.393402,2.778483
438.394653,2.772653
437.395905,2.766924
436.363892,2.761001
435.365143,2.754382
434.366364,2.747388
433.334320,2.741329
432.335571,2.735269
431.336823,2.729500
430.304779,2.722841
429.306061,2.716439
428.307312,2.710661
427.275269,2.704884
426.276489,2.698731
425.277771,2.691593
424.245728,2.684704
423.246979,2.678627
422.248230,2.672707
421.216156,2.666511
420.217407,2.659856
419.218658,2.653315
418.186646,2.646785
417.187897,2.640895
416.189148,2.635021
415.157104,2.628822
414.158325,2.622334
413.126312,2.615695
412.127533,2.609748
411.128784,2.604257
410.096741,2.597801
409.098022,2.590535
408.099243,2.584315
407.067230,2.578680
406.068481,2.572363
405.069702,2.565406
404.037689,2.558315
403.038910,2.552031
402.040161,2.546717
401.008118,2.540130
400.009369,2.533391
399.010620,2.526901
397.978607,2.521213
396.979797,2.515980
395.981079,2.508962
394.949005,2.501056
393.950256,2.495326
392.951538,2.489397
391.919495,2.482361
390.920715,2.475062
389.921997,2.468957
388.889893,2.463544
387.891144,2.456616
386.892426,2.449916
385.860382,2.443584
384.861633,2.438880
383.862885,2.432206
382.830811,2.425215
381.832031,2.418876
380.833282,2.413479
379.801239,2.407637
378.802521,2.401395
377.803772,2.394627
376.771698,2.388692
375.772919,2.384178
374.774170,2.450232
373.742157,2.382888
372.743378,2.433827
371.744659,2.388338
370.712555,2.411083
369.713837,2.420613
368.715057,2.402901
367.683044,2.332191
366.684296,2.384339
365.685516,2.371707
364.653442,2.364568
363.654724,2.358366
362.622681,2.351957
361.623901,2.348920
360.625153,2.348269
359.593109,2.340729
358.594330,2.331828
357.595612,2.320974
356.563568,2.309397
355.564758,2.301423
354.566010,2.292066
353.533997,2.282853
352.535248,2.280416
351.536469,2.277614
350.504425,2.270624
349.505646,2.265977
348.506927,2.262355
347.474854,2.251871
346.476105,2.251998
345.477325,2.248506
344.445282,2.237550
343.446533,2.225102
342.447784,2.213828
341.415710,2.212311
340.416962,2.214351
339.418213,2.209455
338.386139,2.203093
337.387360,2.193698
336.388641,2.183463
335.356598,2.182070
334.357849,2.178014
333.359039,2.167200
332.326996,2.157011
331.328247,2.150828
330.329498,2.151899
329.297424,2.151520
328.298645,2.145948
327.299927,2.127512
326.267853,2.151736
325.269073,2.135270
324.270355,2.121557
323.238281,2.091735
322.239502,2.114213
321.240784,2.129551
320.208710,2.096448
319.209961,2.057638
318.211212,2.095350
317.179138,2.078409
316.180359,2.066054
315.181641,2.044436
314.149536,2.051487
313.150787,2.040136
312.152069,2.062879
311.119995,2.044788
310.121185,2.054191
309.089172,2.044408
308.090393,2.029606
307.091644,2.033463
306.059570,2.034670
305.060852,2.029830
304.062042,2.012599
303.029999,1.989588
302.031219,2.014389
301.032471,2.013535
300.000427,2.008303
299.001678,1.981253
298.002899,1.982450
296.970825,1.972106
295.972076,1.974244
294.973328,1.958742
293.941254,1.972137
292.942474,1.956219
291.943726,1.941191
290.911652,1.951106
289.912903,1.923636
288.914154,1.919919
287.882080,1.926417
286.883301,1.928206
285.884552,1.919895
284.852478,1.916922
283.853729,1.907549
282.854980,1.862547
281.822876,1.884755
280.824127,1.888443
279.825317,1.885017
278.793304,1.870990
277.794556,1.871846
276.795776,1.862109
275.763702,1.853737
274.764984,1.849110
273.766174,1.840491
272.734131,1.832971
271.735382,1.827196
270.736603,1.820635
269.704529,1.813990
268.705780,1.806994
267.707001,1.800361
266.674927,1.793328
265.676178,1.786628
264.677399,1.779363
263.645355,1.772449
262.646576,1.765532
261.647827,1.758439
260.615753,1.751043
259.617004,1.744304
258.584900,1.737353
257.586182,1.730725
256.587372,1.723657
255.555344,1.716206
254.556549,1.709170
253.557785,1.702489
252.525742,1.695561
251.526947,1.688890
250.528183,1.681371
249.496140,1.674209
248.497330,1.667970
247.498581,1.661220
246.466522,1.653639
245.467773,1.645648
244.468964,1.639195
243.436951,1.632102
242.438156,1.625048
241.439392,1.618148
240.407318,1.610942
239.408585,1.604186
238.409760,1.596720
237.377716,1.589221
236.378922,1.582352
235.380157,1.576005
234.348114,1.568581
233.349335,1.561059
232.350586,1.553791
231.318527,1.547161
230.319733,1.540297
229.320969,1.532978
228.288895,1.525792
227.290115,1.518822
226.291382,1.511715
225.259277,1.504589
224.260529,1.497506
223.261749,1.490447
222.229706,1.483662
221.230927,1.476786
220.232147,1.470240
219.200073,1.462940
218.201324,1.455713
217.202515,1.449488
216.170486,1.442423
215.171677,1.435219
214.172928,1.428136
213.140839,1.421172
212.142090,1.414689
211.143280,1.407669
210.111252,1.400930
209.112442,1.394276
208.113693,1.387660
207.081604,1.380522
206.082840,1.373564
205.050766,1.366739
204.052017,1.359757
203.053238,1.353048
202.021164,1.346000
201.022385,1.339317
200.023605,1.332495
198.991516,1.325328
197.992783,1.318827
196.994003,1.312077
195.961929,1.304880
194.963150,1.298277
193.964371,1.291648
192.932281,1.284164
191.933533,1.277230
190.934753,1.270935
189.902695,1.263528
188.903946,1.256648
187.905136,1.249937
186.873108,1.241814
185.874298,1.235153
184.875549,1.228323
183.843445,1.221256
182.844696,1.214392
181.845901,1.207988
180.813843,1.201337
179.815063,1.194353
178.816269,1.187513
177.784180,1.181443
176.785431,1.175265
175.786636,1.168727
174.754608,1.161680
173.755783,1.155462
172.757034,1.149422
171.724945,1.142669
170.726196,1.135804
169.727371,1.129187
168.695328,1.123056
167.696548,1.116450
166.697769,1.109645
165.665665,1.102652
164.666916,1.096172
163.668106,1.089539
162.636078,1.082660
161.637283,1.075839
160.638535,1.069162
159.606430,1.062629
158.607651,1.056363
157.608841,1.049818
156.576813,1.042811
155.578003,1.036540
154.545944,1.030195
153.547165,1.023348
152.548386,1.016234
151.516296,1.009617
150.517532,1.003266
149.518738,0.996660
148.486664,0.989790
147.487885,0.983332
146.489105,0.976538
145.457016,0.969532
144.458267,0.962930
143.459503,0.956254
142.427399,0.949725
141.428650,0.943109
140.429840,0.936786
139.397781,0.930358
138.399002,0.923612
137.400223,0.916887
136.368118,0.910525
135.369385,0.904200
134.370560,0.897329
133.338501,0.890369
132.339691,0.883581
131.340958,0.876834
130.308853,0.869805
129.310074,0.863211
128.311264,0.856475
127.279228,0.849310
126.280426,0.842912
125.281647,0.836851
124.249550,0.830119
123.250801,0.823608
122.251991,0.817000
121.219940,0.810225
120.221115,0.803553
119.222366,0.796730
118.190239,0.789721
117.191505,0.783613
116.192688,0.777284
115.160629,0.770566
114.161819,0.763847
113.163063,0.757543
112.130974,0.750944
111.132202,0.744117
110.133385,0.737180
109.101326,0.730644
108.102509,0.724261
107.103767,0.717277
106.071671,0.710282
105.072891,0.703485
104.074081,0.697240
103.042015,0.690351
102.043213,0.683766
101.011185,0.676859
100.012398,0.669986
99.013596,0.663518
97.981529,0.656743
96.982719,0.649916
95.983971,0.642938
94.951881,0.636174
93.953102,0.629478
92.954285,0.622697
91.922226,0.615662
90.923409,0.609061
89.924667,0.602211
88.892548,0.595386
87.893791,0.588626
86.894981,0.581965
85.862923,0.575084
84.864113,0.568151
83.865334,0.561225
82.833237,0.554199
81.834457,0.547706
80.835648,0.540977
79.803581,0.533430
78.804771,0.526727
77.806030,0.520276
76.773903,0.513222
75.775154,0.506478
74.776337,0.499217
73.744286,0.492400
72.745476,0.485600
71.746696,0.478483
70.714600,0.471174
69.715820,0.464640
68.717003,0.457546
67.684944,0.450214
66.686142,0.443382
65.687355,0.436450
64.655266,0.429228
63.656487,0.422471
62.657673,0.415458
61.625610,0.407811
60.626797,0.401175
59.628021,0.394176
58.595932,0.387033
57.597145,0.380035
56.598400,0.373013
55.566277,0.365859
54.567528,0.358985
53.568687,0.351897
52.536625,0.345047
51.537811,0.337947
50.505753,0.330761
49.506939,0.323550
48.508160,0.316579
47.476070,0.309544
46.477287,0.302601
45.478477,0.295740
44.446415,0.288260
43.447601,0.281021
42.448826,0.274452
41.416702,0.267555
40.417953,0.260980
39.419140,0.253690
38.387077,0.246597
37.388233,0.240174
36.389488,0.233474
35.357365,0.226850
34.358585,0.219731
33.359772,0.212604
32.327709,0.206090
31.328901,0.199513
30.330120,0.192325
29.297997,0.185043
28.299248,0.179331
27.300406,0.172646
26.268345,0.165584
25.269531,0.158897
24.270754,0.152495
23.238661,0.146228
22.239880,0.140028
21.241070,0.133340
20.209009,0.127068
19.210163,0.121022
18.211416,0.114813
17.179293,0.108145
16.180511,0.102076
15.181702,0.095701
14.149640,0.089052
13.150796,0.082294
12.152049,0.075831
11.119988,0.069348
10.121144,0.062969
9.122396,0.056878
8.090272,0.050241
7.091493,0.043644
6.092681,0.037310
5.060620,0.030552
4.061809,0.023682
3.062997,0.016641
2.030904,0.009968
1.032093,0.004464
0.000000,0.001089
-0.998747,0.004402
-1.997624,0.010218
-3.029652,0.018571
-4.028464,0.026273
-5.027276,0.033313
-6.059368,0.040454
-7.058115,0.047278
-8.056992,0.054251
-9.089020,0.060860
-10.087896,0.067450
-11.086643,0.074331
-12.118735,0.081589
-13.117547,0.088176
-14.116360,0.094762
-15.148452,0.101579
-16.147263,0.108487
-17.146011,0.115101
-18.178169,0.121762
-19.176916,0.128261
-20.175728,0.135005
-21.207819,0.142160
-22.206633,0.148609
-23.205444,0.155133
-24.237535,0.162211
-25.236284,0.167467
-26.235159,0.173969
-27.267187,0.180352
-28.266064,0.187143
-29.264811,0.193849
-30.296968,0.200206
-31.295717,0.206619
-32.294464,0.213012
-33.326618,0.219706
-34.325367,0.226224
-35.324245,0.231695
-36.356274,0.238569
-37.355083,0.245514
-38.353897,0.251720
-39.385986,0.258143
-40.384800,0.264206
-41.383614,0.270663
-42.415703,0.277411
-43.414516,0.283616
-44.413265,0.290086
-45.445419,0.296504
-46.444168,0.303128
-47.443043,0.309773
-48.475071,0.316478
-49.473949,0.322986
-50.472694,0.329676
-51.504852,0.336354
-52.503601,0.342834
-53.535759,0.349430
-54.534504,0.355410
-55.533318,0.361938
-56.565411,0.368686
-57.564224,0.375249
-58.563034,0.381743
-59.595127,0.388825
-60.593937,0.395281
-61.592751,0.402013
-62.624840,0.408081
-63.623653,0.415075
-64.622467,0.422042
-65.654556,0.428506
-66.653366,0.435199
-67.652184,0.441619
-68.684273,0.448750
-69.683090,0.455283
-70.681831,0.461968
-71.713989,0.468191
-72.712738,0.475388
-73.711617,0.482570
-74.743645,0.489568
-75.742516,0.495685
-76.741264,0.502734
-77.773361,0.509962
-78.772171,0.516546
-79.770981,0.523131
-80.803070,0.529983
-81.801888,0.536914
-82.800697,0.543574
-83.832787,0.550354
-84.831604,0.557045
-85.830414,0.564487
-86.862572,0.571587
-87.861313,0.578222
-88.860130,0.585011
-89.892227,0.591995
-90.891098,0.599091
-91.889847,0.606143
-92.921997,0.613104
-93.920753,0.620263
-94.919624,0.627261
-95.951653,0.634681
-96.950531,0.641723
-97.949280,0.648566
-98.981438,0.655868
-99.980179,0.663027
-100.979065,0.669903
-102.011093,0.676654
-103.009964,0.683815
-104.008705,0.691028
-105.040863,0.698187
-106.039619,0.705007
-107.071777,0.712288
-108.070587,0.719480
-109.069389,0.726368
-110.101486,0.733428
-111.100304,0.740138
-112.099113,0.747481
-113.131271,0.754665
-114.130020,0.761539
-115.128899,0.768316
-116.160927,0.775498
-117.159798,0.782662
-118.158554,0.789750
-119.190704,0.796802
-120.189453,0.803337
-121.188255,0.810936
-122.220421,0.818419
-123.219162,0.825373
-124.218033,0.832411
-125.250061,0.839528
-126.248947,0.846606
-127.247688,0.853447
-128.279846,0.860140
-129.278656,0.867146
-130.277481,0.874251
-131.309555,0.880958
-132.308380,0.887822
-133.307190,0.894555
-134.339355,0.901358
-135.338089,0.907505
-136.336975,0.914333
-137.369003,0.921977
-138.367874,0.928174
-139.366684,0.934218
-140.398773,0.941410
-141.397583,0.948750
-142.396408,0.955283
-143.428497,0.961856
-144.427368,0.968910
-145.426117,0.975423
-146.458282,0.982709
-147.457077,0.989261
-148.455902,0.995911
-149.487991,1.002723
-150.486877,1.009716
-151.485611,1.016011
-152.517776,1.022814
-153.516525,1.029557
-154.515396,1.036332
-155.547485,1.043566
-156.546295,1.050029
-157.578400,1.056818
-158.577271,1.063418
-159.576004,1.070251
-160.608170,1.076939
-161.606918,1.083194
-162.605804,1.089961
-163.637894,1.097286
-164.636765,1.103954
-165.635513,1.110658
-166.667603,1.117635
-167.666428,1.124642
-168.665222,1.131259
-169.697372,1.138019
-170.696136,1.144960
-171.695007,1.151569
-172.727097,1.158225
-173.725922,1.164585
-174.724731,1.171313
-175.756882,1.178301
-176.755630,1.184662
-177.754501,1.190859
-178.786606,1.197581
-179.785477,1.204825
-180.784225,1.211326
-181.816376,1.217880
-182.815125,1.224355
-183.813995,1.230882
-184.846100,1.237929
-185.844971,1.244333
-186.843719,1.250430
-187.875870,1.257564
-188.874695,1.264268
-189.873505,1.270513
-190.905594,1.277187
-191.904465,1.283887
-192.903214,1.290812
-193.935364,1.297580
-194.934189,1.304494
-195.933060,1.311077
-196.965088,1.318182
-197.963959,1.325197
-198.962769,1.331214
-199.994934,1.338564
-200.993683,1.345514
-201.992554,1.351753
-203.024643,1.358234
-204.023468,1.365416
-205.022263,1.372021
-206.054428,1.378622
-207.053177,1.385035
-208.085403,1.392711
-209.084137,1.399438
-210.082886,1.406055
-211.115112,1.412421
-212.113861,1.419054
-213.112732,1.425738
-214.144836,1.432713
-215.143646,1.439166
-216.142456,1.445726
-217.174606,1.452489
-218.173355,1.459299
-219.172241,1.466009
-220.204330,1.472850
-221.203201,1.479236
-222.201950,1.486094
-223.234177,1.493239
-224.232925,1.500165
-225.231796,1.506248
-226.263885,1.513419
-227.262772,1.520369
-228.261505,1.527160
-229.293671,1.534375
-230.292496,1.541330
-231.291367,1.547998
-232.323380,1.554643
-233.322250,1.561688
-234.321075,1.568540
-235.353226,1.574779
-236.351990,1.581795
-237.350861,1.588853
-238.382965,1.595947
-239.381836,1.602065
-240.380569,1.609104
-241.412811,1.615955
-242.411545,1.622557
-243.410416,1.628817
-244.442505,1.635650
-245.441391,1.642493
-246.440125,1.649316
-247.472305,1.656062
-248.471100,1.662713
-249.469971,1.669525
-250.502060,1.676096
-251.500946,1.682959
-252.499710,1.689592
-253.531860,1.696623
-254.530670,1.702979
-255.529404,1.709406
-256.561554,1.716672
-257.560394,1.723716
-258.559265,1.730611
-259.591339,1.736444
-260.590240,1.743611
-261.622253,1.750859
-262.621124,1.756908
-263.619934,1.763394
-264.652100,1.770596
-265.650909,1.777348
-266.649780,1.783736
-267.681824,1.790687
-268.680695,1.797375
-269.679504,1.804619
-270.711670,1.811824
-271.710449,1.818098
-272.709351,1.824039
-273.741425,1.831278
-274.740295,1.838189
-275.739075,1.844684
-276.771210,1.851220
-277.770050,1.857618
-278.768921,1.864248
-279.800995,1.871600
-280.799866,1.878289
-281.798615,1.884615
-282.830841,1.892033
-283.829590,1.899114
-284.828461,1.905486
-285.860565,1.911816
-286.859436,1.919224
-287.858246,1.926160
-288.890411,1.932805
-289.889130,1.939536
-290.888000,1.946657
-291.920105,1.953986
-292.918976,1.960656
-293.917816,1.967853
-294.949951,1.975080
-295.948761,1.981782
-296.947662,1.987098
-297.979736,1.994054
-298.978485,1.999786
-299.977356,2.007395
-301.009460,2.013485
-302.008331,2.019572
-303.007141,2.028224
-304.039307,2.035495
-305.038116,2.042583
-306.036987,2.046128
-307.069031,2.055469
-308.067963,2.062726
-309.066711,2.066287
-310.098877,2.072968
-311.097656,2.081493
-312.129852,2.089468
-313.128632,2.096367
-314.127502,2.104168
-315.159607,2.109085
-316.158478,2.114836
-317.157318,2.122177
-318.189453,2.126656
-319.188263,2.135335
-320.187134,2.141492
-321.219177,2.144663
-322.218109,2.153632
-323.216858,2.163006
-324.249084,2.165034
-325.247833,2.171256
-326.246704,2.178671
-327.278809,2.181001
-328.277679,2.186167
-329.276489,2.194913
-330.308655,2.200912
-331.307465,2.207076
-332.306335,2.214409
-333.338440,2.219302
-334.337311,2.223302
-335.336121,2.233509
-336.368286,2.238516
-337.367096,2.241908
-338.365967,2.252720
-339.398071,2.258759
-340.396942,2.263476
-341.395691,2.270182
-342.427917,2.272554
-343.426697,2.229854
-344.425476,2.241246
-345.457672,2.237723
-346.456451,2.271555
-347.455322,2.299777
-348.487396,2.269507
-349.486267,2.262861
-350.485077,2.285310
-351.517242,2.283803
-352.516052,2.293008
-353.514923,2.293283
-354.547028,2.299454
-355.545898,2.306775
-356.544708,2.313240
-357.576843,2.319806
-358.575684,2.326855
-359.574554,2.333634
-360.606659,2.342114
-361.605530,2.342525
-362.604340,2.349602
-363.636536,2.359896
-364.635315,2.361550
-365.667511,2.375510
-366.666290,2.399015
-367.665222,2.370781
-368.697266,2.342108
-369.696167,2.432574
-370.694916,2.427971
-371.727142,2.418967
-372.725891,2.421471
-373.724854,2.422200
-374.756927,2.427871
-375.755829,2.426746
-376.754608,2.452445
-377.786774,2.399466
-378.785583,2.463263
-379.784454,2.421093
-380.816559,2.427404
-381.815430,2.433222
-382.814240,2.437987
-383.846405,2.443475
-384.845215,2.450258
-385.844086,2.456452
-386.876190,2.463117
-387.875000,2.468959
-388.873871,2.474752
-389.905975,2.481323
-390.904846,2.487791
-391.903625,2.493705
-392.935883,2.499890
-393.934601,2.506940
-394.933563,2.513964
-395.965576,2.519694
-396.964539,2.526104
-397.963287,2.532459
-398.995514,2.539346
-399.994293,2.545817
-400.993195,2.552382
-402.025269,2.559057
-403.024139,2.566018
-404.022949,2.572226
-405.055115,2.579597
-406.053925,2.585974
-407.052887,2.592372
-408.084900,2.598846
-409.083832,2.605596
-410.082581,2.612094
-411.114807,2.618679
-412.113617,2.624676
-413.112488,2.631116
-414.144592,2.638179
-415.143463,2.644809
-416.175568,2.650993
-417.174500,2.656626
-418.173248,2.662982
-419.205475,2.670181
-420.204285,2.676511
-421.203156,2.682010
-422.235260,2.689065
-423.234131,2.695956
-424.232941,2.702610
-425.265137,2.709292
-426.263916,2.715264
-427.262848,2.721829
-428.294952,2.728677
-429.293823,2.734671
-430.292633,2.740877
-431.324829,2.747247
-432.323608,2.754080
-433.322418,2.759881
-434.354614,2.766526
-435.353394,2.772853
-436.352325,2.779539
-437.384430,2.785705
-438.383301,2.791777
-439.382111,2.797633
-440.414307,2.804477
-441.413086,2.810494
-442.412018,2.816162
-443.444092,2.822571
-444.442993,2.829937
-445.441803,2.836038
-446.473938,2.842097
-447.472778,2.848989
-448.471710,2.855498
-449.503784,2.861684
-450.502655,2.865503
-451.501495,2.871776
-452.533691,2.878274
-453.532471,2.885007
-454.531403,2.890960
-455.563477,2.896747
-456.562347,2.903002
-457.561188,2.910291
-458.593414,2.916482
-459.592163,2.921937
-460.591095,2.928512
-461.623169,2.935725
-462.622070,2.942324
-463.620880,2.947634
-464.653107,2.954291
-465.651825,2.960957
-466.650787,2.967203
-467.682861,2.972911
-468.681824,2.974837
-469.713837,2.975146
-470.712799,2.975461
-471.711578,2.974945
-472.743805,2.974464
