2,RUF RT 12R RWD,baseline
Steering Wheel Angle,Yaw Rate
472.751526,2.954199
471.719452,2.958647
470.720764,2.977844
469.721985,2.976858
468.689972,2.970906
467.691223,2.963849
466.659149,2.954168
465.660400,2.948052
464.661682,2.942212
463.629669,2.936187
462.630920,2.932844
461.632141,2.926465
460.600128,2.918107
459.601379,2.913740
458.602631,2.907556
457.570587,2.899916
456.571869,2.894613
455.573090,2.889554
454.541046,2.882920
453.542328,2.875226
452.543579,2.869430
451.511505,2.863983
450.512787,2.857076
449.514038,2.850197
448.481995,2.844698
447.483276,2.838204
446.484497,2.831462
445.452484,2.825121
444.453705,2.818772
443.454987,2.812519
442.422974,2.805702
441.424194,2.799662
440.425476,2.793313
439.393402,2.786746
438.394653,2.780301
437.395905,2.773610
436.363892,2.766985
435.365143,2.760586
434.366364,2.753832
433.334320,2.746825
432.335571,2.740804
431.336823,2.735229
430.304779,2.728175
429.306061,2.720547
428.307312,2.714513
427.275269,2.707813
426.276489,2.701209
425.277771,2.694826
424.245728,2.689088
423.246979,2.682915
422.248230,2.675632
421.216156,2.668831
420.217407,2.662751
419.218658,2.656858
418.186646,2.649854
417.187897,2.642368
416.189148,2.636557
415.157104,2.629934
414.158325,2.623946
413.126312,2.617244
412.127533,2.610825
411.128784,2.605361
410.096741,2.598361
409.098022,2.592166
408.099243,2.585853
407.067230,2.579627
406.068481,2.573607
405.069702,2.567023
404.037689,2.560618
403.038910,2.554337
402.040161,2.569949
401.008118,2.563204
400.009369,2.593172
399.010620,2.531766
397.978607,2.586581
396.979797,2.533846
395.981079,2.588192
394.949005,2.568904
393.950256,2.593375
392.951538,2.535679
391.919495,2.455330
390.920715,2.515650
389.921997,2.468566
388.889893,2.549455
387.891144,2.570764
386.892426,2.502255
385.860382,2.435041
384.861633,2.455855
383.862885,2.541862
382.830811,2.437788
381.832031,2.462600
380.833282,2.509710
379.801239,2.445347
378.802521,2.404841
377.803772,2.471578
376.771698,2.466151
375.772919,2.421653
374.774170,2.461037
373.742157,2.441130
372.743378,2.452878
371.744659,2.436336
370.712555,2.362205
369.713837,2.434714
368.715057,2.384057
367.683044,2.400345
366.684296,2.363359
365.685516,2.375468
364.653442,2.402211
363.654724,2.390765
362.622681,2.358570
361.623901,2.349403
360.625153,2.340177
359.593109,2.335567
358.594330,2.327012
357.595612,2.317990
356.563568,2.313496
355.564758,2.309356
354.566010,2.304549
353.533997,2.301152
352.535248,2.296628
351.536469,2.288582
350.504425,2.290044
349.505646,2.268396
348.506927,2.262256
347.474854,2.261034
346.476105,2.275249
345.477325,2.261534
344.445282,2.239377
343.446533,2.234741
342.447784,2.233085
341.415710,2.223746
340.416962,2.216733
339.418213,2.256913
338.386139,2.246397
337.387360,2.193502
336.388641,2.188173
335.356598,2.176432
334.357849,2.187350
333.359039,2.227641
332.326996,2.191908
331.328247,2.140294
330.329498,2.149314
329.297424,2.135633
328.298645,2.146838
327.299927,2.183113
326.267853,2.177706
325.269073,2.158105
324.270355,2.135191
323.238281,2.126052
322.239502,2.144237
321.240784,2.092378
320.208710,2.074430
319.209961,2.093582
318.211212,2.098795
317.179138,2.059845
316.180359,2.094374
315.181641,2.096408
314.149536,2.081713
313.150787,2.087988
312.152069,2.070002
311.119995,2.059621
310.121185,2.056943
309.089172,2.055103
308.090393,2.045970
307.091644,2.028063
306.059570,2.053560
305.060852,2.030679
304.062042,2.022535
303.029999,2.020655
302.031219,2.015310
301.032471,2.006594
300.000427,2.008957
299.001678,1.996510
298.002899,1.991242
296.970825,1.982496
295.972076,1.961745
294.973328,2.001572
293.941254,1.971777
292.942474,1.969887
291.943726,1.958349
290.911652,1.968071
289.912903,1.950372
288.914154,1.943543
287.882080,1.939434
286.883301,1.932194
285.884552,1.926908
284.852478,1.921934
283.853729,1.913497
282.854980,1.905827
281.822876,1.898834
280.824127,1.891029
279.825317,1.883180
278.793304,1.875694
277.794556,1.868959
276.795776,1.861959
275.763702,1.854709
274.764984,1.847492
273.766174,1.840366
272.734131,1.833508
271.735382,1.827433
270.736603,1.820631
269.704529,1.813522
268.705780,1.806252
267.707001,1.799249
266.674927,1.792403
265.676178,1.785235
264.677399,1.778033
263.645355,1.770895
262.646576,1.764021
261.647827,1.758038
260.615753,1.750429
259.617004,1.743763
258.584900,1.736872
257.586182,1.730428
256.587372,1.722847
255.555344,1.715589
254.556549,1.708836
253.557785,1.702376
252.525742,1.694779
251.526947,1.687946
250.528183,1.680958
249.496140,1.674267
248.497330,1.667644
247.498581,1.660804
246.466522,1.653668
245.467773,1.646927
244.468964,1.640364
243.436951,1.634010
242.438156,1.627202
241.439392,1.620199
240.407318,1.613499
239.408585,1.607357
238.409760,1.600442
237.377716,1.593152
236.378922,1.586079
235.380157,1.579840
234.348114,1.572571
233.349335,1.565518
232.350586,1.558624
231.318527,1.552328
230.319733,1.545519
229.320969,1.538326
228.288895,1.531784
227.290115,1.525659
226.291382,1.518952
225.259277,1.511466
224.260529,1.504800
223.261749,1.498416
222.229706,1.491752
221.230927,1.485074
220.232147,1.478673
219.200073,1.471758
218.201324,1.464966
217.202515,1.457950
216.170486,1.450728
215.171677,1.444041
214.172928,1.437472
213.140839,1.430549
212.142090,1.423651
211.143280,1.416786
210.111252,1.409853
209.112442,1.406805
208.113693,1.399940
207.081604,1.393126
206.082840,1.386313
205.050766,1.379263
204.052017,1.373065
203.053238,1.366117
202.021164,1.358804
201.022385,1.352618
200.023605,1.345980
198.991516,1.339124
197.992783,1.332873
196.994003,1.326248
195.961929,1.318875
194.963150,1.312514
193.964371,1.306256
192.932281,1.299537
191.933533,1.292458
190.934753,1.285503
189.902695,1.279086
188.903946,1.272349
187.905136,1.265319
186.873108,1.258348
185.874298,1.251801
184.875549,1.244775
183.843445,1.238082
182.844696,1.230907
181.845901,1.224541
180.813843,1.217674
179.815063,1.210891
178.816269,1.203685
177.784180,1.196870
176.785431,1.190731
175.786636,1.183761
174.754608,1.176248
173.755783,1.169459
172.757034,1.162714
171.724945,1.155846
170.726196,1.149082
169.727371,1.142197
168.695328,1.135254
167.696548,1.128694
166.697769,1.122055
165.665665,1.114694
164.666916,1.107687
163.668106,1.100815
162.636078,1.093482
161.637283,1.086831
160.638535,1.079777
159.606430,1.072737
158.607651,1.065822
157.608841,1.059324
156.576813,1.052054
155.578003,1.045183
154.545944,1.038280
153.547165,1.031399
152.548386,1.024497
151.516296,1.017096
150.517532,1.010111
149.518738,1.003174
148.486664,0.995964
147.487885,0.988640
146.489105,0.981607
145.457016,0.974284
144.458267,0.967250
143.459503,0.959739
142.427399,0.952902
141.428650,0.945432
140.429840,0.938348
139.397781,0.931155
138.399002,0.924139
137.400223,0.917323
136.368118,0.910413
135.369385,0.903703
134.370560,0.896803
133.338501,0.889724
132.339691,0.882696
131.340958,0.875816
130.308853,0.868289
129.310074,0.861419
128.311264,0.854574
127.279228,0.847450
126.280426,0.840071
125.281647,0.833068
124.249550,0.825662
123.250801,0.818729
122.251991,0.810672
121.219940,0.804006
120.221115,0.797130
119.222366,0.790192
118.190239,0.783091
117.191505,0.775928
116.192688,0.769394
115.160629,0.762412
114.161819,0.755539
113.163063,0.748256
112.130974,0.741509
111.132202,0.734890
110.133385,0.728170
109.101326,0.721013
108.102509,0.714189
107.103767,0.707538
106.071671,0.700232
105.072891,0.693884
104.074081,0.687253
103.042015,0.680389
102.043213,0.673299
101.011185,0.666621
100.012398,0.660180
99.013596,0.653466
97.981529,0.646537
96.982719,0.639734
95.983971,0.633532
94.951881,0.626809
93.953102,0.620339
92.954285,0.613678
91.922226,0.606700
90.923409,0.600266
89.924667,0.593924
88.892548,0.587059
87.893791,0.580433
86.894981,0.574012
85.862923,0.567295
84.864113,0.560698
83.865334,0.553883
82.833237,0.547373
81.834457,0.541256
80.835648,0.534723
79.803581,0.528062
78.804771,0.521297
77.806030,0.514500
76.773903,0.508068
75.775154,0.501742
74.776337,0.495411
73.744286,0.488501
72.745476,0.482257
71.746696,0.476141
70.714600,0.469358
69.715820,0.463103
68.717003,0.456467
67.684944,0.450094
66.686142,0.443608
65.687355,0.436864
64.655266,0.430574
63.656487,0.424161
62.657673,0.417704
61.625610,0.410713
60.626797,0.404265
59.628021,0.397589
58.595932,0.390511
57.597145,0.384071
56.598400,0.377471
55.566277,0.370996
54.567528,0.364246
53.568687,0.357550
52.536625,0.351093
51.537811,0.344377
50.505753,0.337645
49.506939,0.331268
48.508160,0.324758
47.476070,0.318119
46.477287,0.311589
45.478477,0.305513
44.446415,0.298652
43.447601,0.291580
42.448826,0.285315
41.416702,0.278487
40.417953,0.271845
39.419140,0.265373
38.387077,0.258511
37.388233,0.251439
36.389488,0.244548
35.357365,0.237380
34.358585,0.230967
33.359772,0.224337
32.327709,0.216923
31.328901,0.210227
30.330120,0.203829
29.297997,0.197119
28.299248,0.189643
27.300406,0.182149
26.268345,0.174983
25.269531,0.168168
24.270754,0.160677
23.238661,0.152850
22.239880,0.145716
21.241070,0.138719
20.209009,0.131207
19.210163,0.124070
18.211416,0.116992
17.179293,0.109725
16.180511,0.102605
15.181702,0.095370
14.149640,0.088161
13.150796,0.081313
12.152049,0.074458
11.119988,0.067279
10.121144,0.060146
9.122396,0.053006
8.090272,0.045366
7.091493,0.038859
6.092681,0.032598
5.060620,0.025316
4.061809,0.019056
3.062997,0.013903
2.030904,0.009214
1.032093,0.004618
0.000000,0.001201
-0.998747,0.004312
-1.997624,0.008606
-3.029652,0.013472
-4.028464,0.018029
-5.027276,0.023707
-6.059368,0.030195
-7.058115,0.037159
-8.056992,0.043549
-9.089020,0.050415
-10.087896,0.056922
-11.086643,0.064282
-12.118735,0.071170
-13.117547,0.077659
-14.116360,0.084410
-15.148452,0.091625
-16.147263,0.098470
-17.146011,0.104928
-18.178169,0.112139
-19.176916,0.118847
-20.175728,0.125882
-21.207819,0.132892
-22.206633,0.139975
-23.205444,0.146961
-24.237535,0.154204
-25.236284,0.160964
-26.235159,0.168250
-27.267187,0.175032
-28.266064,0.181892
-29.264811,0.188852
-30.296968,0.196058
-31.295717,0.202981
-32.294464,0.209584
-33.326618,0.216805
-34.325367,0.224761
-35.324245,0.231559
-36.356274,0.238047
-37.355083,0.245191
-38.353897,0.252565
-39.385986,0.259947
-40.384800,0.266791
-41.383614,0.274065
-42.415703,0.281379
-43.414516,0.288626
-44.413265,0.295398
-45.445419,0.302753
-46.444168,0.309539
-47.443043,0.316300
-48.475071,0.323284
-49.473949,0.329997
-50.472694,0.336569
-51.504852,0.344236
-52.503601,0.350881
-53.535759,0.357578
-54.534504,0.364768
-55.533318,0.371212
-56.565411,0.378261
-57.564224,0.384942
-58.563034,0.391718
-59.595127,0.398622
-60.593937,0.405261
-61.592751,0.411922
-62.624840,0.418768
-63.623653,0.425450
-64.622467,0.432225
-65.654556,0.439121
-66.653366,0.445849
-67.652184,0.452658
-68.684273,0.459979
-69.683090,0.466869
-70.681831,0.473558
-71.713989,0.480799
-72.712738,0.487926
-73.711617,0.495029
-74.743645,0.501997
-75.742516,0.508483
-76.741264,0.515699
-77.773361,0.522985
-78.772171,0.529646
-79.770981,0.536131
-80.803070,0.543137
-81.801888,0.549978
-82.800697,0.556136
-83.832787,0.563218
-84.831604,0.569964
-85.830414,0.576847
-86.862572,0.584177
-87.861313,0.590394
-88.860130,0.596909
-89.892227,0.604012
-90.891098,0.610899
-91.889847,0.617663
-92.921997,0.623894
-93.920753,0.630859
-94.919624,0.637581
-95.951653,0.644364
-96.950531,0.650215
-97.949280,0.656831
-98.981438,0.664123
-99.980179,0.670708
-100.979065,0.676100
-102.011093,0.683004
-103.009964,0.689954
-104.008705,0.696411
-105.040863,0.702119
-106.039619,0.708422
-107.071777,0.715332
-108.070587,0.721854
-109.069389,0.728345
-110.101486,0.734965
-111.100304,0.741703
-112.099113,0.748547
-113.131271,0.754813
-114.130020,0.761377
-115.128899,0.768346
-116.160927,0.775094
-117.159798,0.781445
-118.158554,0.787963
-119.190704,0.794771
-120.189453,0.801438
-121.188255,0.807618
-122.220421,0.813603
-123.219162,0.820586
-124.218033,0.827614
-125.250061,0.834061
-126.248947,0.839873
-127.247688,0.846830
-128.279846,0.853867
-129.278656,0.860276
-130.277481,0.866795
-131.309555,0.873549
-132.308380,0.880238
-133.307190,0.886883
-134.339355,0.893539
-135.338089,0.900062
-136.336975,0.906756
-137.369003,0.913753
-138.367874,0.919401
-139.366684,0.926310
-140.398773,0.933260
-141.397583,0.939985
-142.396408,0.946375
-143.428497,0.953136
-144.427368,0.959987
-145.426117,0.966839
-146.458282,0.973800
-147.457077,0.980492
-148.455902,0.987062
-149.487991,0.993753
-150.486877,1.000184
-151.485611,1.007052
-152.517776,1.014127
-153.516525,1.020591
-154.515396,1.027256
-155.547485,1.034288
-156.546295,1.040934
-157.578400,1.047805
-158.577271,1.054134
-159.576004,1.061340
-160.608170,1.068416
-161.606918,1.075326
-162.605804,1.081587
-163.637894,1.088718
-164.636765,1.095432
-165.635513,1.102264
-166.667603,1.108992
-167.666428,1.115428
-168.665222,1.122411
-169.697372,1.129100
-170.696136,1.136189
-171.695007,1.142974
-172.727097,1.149715
-173.725922,1.156514
-174.724731,1.163245
-175.756882,1.170089
-176.755630,1.176687
-177.754501,1.183694
-178.786606,1.190597
-179.785477,1.197120
-180.784225,1.204140
-181.816376,1.211112
-182.815125,1.217756
-183.813995,1.224245
-184.846100,1.231353
-185.844971,1.238294
-186.843719,1.244494
-187.875870,1.251308
-188.874695,1.258933
-189.873505,1.265669
-190.905594,1.272346
-191.904465,1.279260
-192.903214,1.286381
-193.935364,1.292961
-194.934189,1.299597
-195.933060,1.306497
-196.965088,1.313525
-197.963959,1.319997
-198.962769,1.326662
-199.994934,1.333990
-200.993683,1.340860
-201.992554,1.347534
-203.024643,1.355347
-204.023468,1.361766
-205.022263,1.368580
-206.054428,1.376167
-207.053177,1.383041
-208.085403,1.390296
-209.084137,1.396728
-210.082886,1.403422
-211.115112,1.411024
-212.113861,1.417942
-213.112732,1.424715
-214.144836,1.431984
-215.143646,1.440354
-216.142456,1.446915
-217.174606,1.453852
-218.173355,1.461077
-219.172241,1.468133
-220.204330,1.475418
-221.203201,1.482506
-222.201950,1.489447
-223.234177,1.496452
-224.232925,1.503688
-225.231796,1.510541
-226.263885,1.517455
-227.262772,1.524723
-228.261505,1.532252
-229.293671,1.539006
-230.292496,1.545977
-231.291367,1.553002
-232.323380,1.560148
-233.322250,1.567078
-234.321075,1.574136
-235.353226,1.581342
-236.351990,1.588688
-237.350861,1.595580
-238.382965,1.603014
-239.381836,1.611038
-240.380569,1.618285
-241.412811,1.624978
-242.411545,1.632334
-243.410416,1.639519
-244.442505,1.646776
-245.441391,1.653806
-246.440125,1.660573
-247.472305,1.667662
-248.471100,1.674999
-249.469971,1.682065
-250.502060,1.689289
-251.500946,1.696197
-252.499710,1.703337
-253.531860,1.710695
-254.530670,1.717300
-255.529404,1.723344
-256.561554,1.730365
-257.560394,1.737240
-258.559265,1.743946
-259.591339,1.751062
-260.590240,1.757890
-261.622253,1.764606
-262.621124,1.771203
-263.619934,1.777994
-264.652100,1.785257
-265.650909,1.792503
-266.649780,1.799801
-267.681824,1.806898
-268.680695,1.813635
-269.679504,1.820346
-270.711670,1.828168
-271.710449,1.834770
-272.709351,1.841273
-273.741425,1.848050
-274.740295,1.855292
-275.739075,1.862839
-276.771210,1.869587
-277.770050,1.876006
-278.768921,1.883532
-279.800995,1.891269
-280.799866,1.898116
-281.798615,1.905018
-282.830841,1.912541
-283.829590,1.919652
-284.828461,1.927085
-285.860565,1.934391
-286.859436,1.941565
-287.858246,1.948291
-288.890411,1.955382
-289.889130,1.962190
-290.888000,1.969245
-291.920105,1.976041
-292.918976,1.982826
-293.917816,1.989521
-294.949951,1.996298
-295.948761,2.002888
-296.947662,2.002572
-297.979736,2.011484
-298.978485,2.016674
-299.977356,2.023201
-301.009460,2.029507
-302.008331,2.036847
-303.007141,2.040217
-304.039307,2.046822
-305.038116,2.054560
-306.036987,2.061900
-307.069031,2.065856
-308.067963,2.074524
-309.066711,2.079983
-310.098877,2.085531
-311.097656,2.090892
-312.129852,2.100241
-313.128632,2.104233
-314.127502,2.109796
-315.159607,2.117455
-316.158478,2.119368
-317.157318,2.130352
-318.189453,2.134033
-319.188263,2.140236
-320.187134,2.148677
-321.219177,2.156091
-322.218109,2.163184
-323.216858,2.167952
-324.249084,2.174710
-325.247833,2.177441
-326.246704,2.186866
-327.278809,2.187869
-328.277679,2.197110
-329.276489,2.199904
-330.308655,2.175235
-331.307465,2.194875
-332.306335,2.200513
-333.338440,2.204330
-334.337311,2.222457
-335.336121,2.218389
-336.368286,2.222416
-337.367096,2.194280
-338.365967,2.223688
-339.398071,2.267054
-340.396942,2.227513
-341.395691,2.233057
-342.427917,2.246833
-343.426697,2.267150
-344.425476,2.236649
-345.457672,2.258758
-346.456451,2.254683
-347.455322,2.262879
-348.487396,2.278737
-349.486267,2.286361
-350.485077,2.288327
-351.517242,2.296132
-352.516052,2.294488
-353.514923,2.304262
-354.547028,2.316686
-355.545898,2.293037
-356.544708,2.352796
-357.576843,2.360531
-358.575684,2.354549
-359.574554,2.374345
-360.606659,2.354780
-361.605530,2.372370
-362.604340,2.360184
-363.636536,2.385464
-364.635315,2.406811
-365.667511,2.381272
-366.666290,2.418097
-367.665222,2.402475
-368.697266,2.342562
-369.696167,2.435344
-370.694916,2.405434
-371.727142,2.432659
-372.725891,2.442640
-373.724854,2.456688
-374.756927,2.435440
-375.755829,2.417806
-376.754608,2.467387
-377.786774,2.454535
-378.785583,2.481846
-379.784454,2.428416
-380.816559,2.444300
-381.815430,2.516936
-382.814240,2.528219
-383.846405,2.470618
-384.845215,2.441588
-385.844086,2.491386
-386.876190,2.557310
-387.875000,2.527622
-388.873871,2.482899
-389.905975,2.551811
-390.904846,2.485858
-391.903625,2.550960
-392.935883,2.591742
-393.934601,2.526160
-394.933563,2.497893
-395.965576,2.504303
-396.964539,2.583342
-397.963287,2.598080
-398.995514,2.529166
-399.994293,2.538147
-400.993195,2.570713
-402.025269,2.595037
-403.024139,2.631024
-404.022949,2.604037
-405.055115,2.574171
-406.053925,2.572135
-407.052887,2.628470
-408.084900,2.632977
-409.083832,2.595893
-410.082581,2.615249
-411.114807,2.617810
-412.113617,2.623613
-413.112488,2.629567
-414.144592,2.638350
-415.143463,2.642876
-416.175568,2.646523
-417.174500,2.654091
-418.173248,2.658684
-419.205475,2.663194
-420.204285,2.670015
-421.203156,2.676050
-422.235260,2.681354
-423.234131,2.686243
-424.232941,2.692321
-425.265137,2.698691
-426.263916,2.704136
-427.262848,2.709068
-428.294952,2.715563
-429.293823,2.722215
-430.292633,2.727969
-431.324829,2.734091
-432.323608,2.740097
-433.322418,2.743834
-434.354614,2.750609
-435.353394,2.756533
-436.352325,2.763041
-437.384430,2.769225
-438.383301,2.775450
-439.382111,2.782208
-440.414307,2.788923
-441.413086,2.795431
-442.412018,2.801424
-443.444092,2.808528
-444.442993,2.815082
-445.441803,2.821858
-446.473938,2.828313
-447.472778,2.834897
-448.471710,2.841698
-449.503784,2.848504
-450.502655,2.855184
-451.501495,2.861324
-452.533691,2.867618
-453.532471,2.875113
-454.531403,2.881028
-455.563477,2.887869
-456.562347,2.894510
-457.561188,2.901017
-458.593414,2.907476
-459.592163,2.914135
-460.591095,2.920392
-461.623169,2.926747
-462.622070,2.932944
-463.620880,2.939647
-464.653107,2.946257
-465.651825,2.952441
-466.650787,2.958747
-467.682861,2.965372
-468.681824,2.968861
-469.713837,2.968785
-470.712799,2.968325
-471.711578,2.968656
-472.743805,2.969708
