2,RUF RT 12R RWD,baseline
Steering Wheel Angle,Yaw Rate
467.558411,2.951843
467.481201,2.952607
467.400391,2.956981
467.331268,2.960375
467.278870,2.963477
466.679932,2.962941
465.537598,2.958126
464.388550,2.953842
463.292084,2.946557
462.170959,2.938697
461.080627,2.931566
459.988586,2.924474
458.863770,2.917337
457.764374,2.905603
456.615784,2.894973
455.482086,2.887249
454.311249,2.879810
453.171082,2.873319
452.035004,2.870956
450.879059,2.866817
449.761688,2.859504
448.607300,2.850766
447.478699,2.844691
446.353302,2.838655
445.202332,2.830955
444.081696,2.823073
442.927429,2.815734
441.804504,2.809303
440.686340,2.801813
439.537567,2.793275
438.417267,2.785826
437.265686,2.778680
436.148102,2.771689
435.032898,2.763404
433.885345,2.755039
432.768280,2.748507
431.621735,2.741748
430.507385,2.734510
429.393402,2.726953
428.247955,2.719594
427.134674,2.712950
425.992798,2.705360
424.881653,2.698081
423.738922,2.690786
422.628174,2.683527
421.518799,2.676308
420.378815,2.667833
419.268982,2.660630
418.129761,2.653498
417.023499,2.646359
415.917572,2.638500
414.779083,2.631400
413.672333,2.624766
412.537811,2.617239
411.434540,2.609832
410.329895,2.601950
409.194153,2.595319
408.091400,2.589118
406.959595,2.581329
405.857727,2.574515
404.756287,2.568232
403.625610,2.561608
402.526001,2.554637
401.395599,2.548027
400.296814,2.541375
399.168243,2.534632
398.070557,2.528053
396.973358,2.521417
395.846161,2.514471
394.749847,2.507771
393.624146,2.500556
392.529449,2.493942
391.427704,2.525352
390.292908,2.532244
389.175751,2.487566
388.050049,2.528174
386.963287,2.546315
385.878082,2.455182
384.768677,2.516315
383.687592,2.515530
382.587250,2.480882
381.507111,2.420181
380.425629,2.499455
379.301361,2.406870
378.201935,2.426092
377.063599,2.439858
375.965332,2.477832
374.875305,2.414477
373.761200,2.446146
372.684570,2.425755
371.589600,2.381002
370.520630,2.370538
369.418030,2.411988
368.332794,2.401419
367.241791,2.377881
366.115784,2.379475
365.019531,2.403137
363.903534,2.376642
362.822144,2.369554
361.746246,2.338989
360.644287,2.344568
359.576355,2.338942
358.474854,2.328558
357.399384,2.320990
356.319305,2.338324
355.204803,2.292529
354.120880,2.299918
353.013184,2.318609
351.940735,2.287649
350.873047,2.324865
349.773682,2.271188
348.701294,2.266148
347.596771,2.266212
346.517456,2.262120
345.438141,2.244784
344.337891,2.245445
343.272369,2.236392
342.178284,2.225405
341.110535,2.221862
340.009583,2.219596
338.934937,2.208843
337.859802,2.198801
336.759430,2.190669
335.694336,2.189210
334.603760,2.191367
333.540253,2.175943
332.473602,2.171260
331.375366,2.159432
330.304138,2.149462
329.207397,2.151935
328.145508,2.172748
327.088409,2.178122
326.000214,2.113921
324.936371,2.117936
323.840485,2.103412
322.772827,2.128996
321.709534,2.146181
320.619904,2.099208
319.564392,2.115382
318.476135,2.102821
317.415070,2.074522
316.350372,2.067229
315.261505,2.089159
314.205780,2.070929
313.122589,2.079500
312.064362,2.073245
310.974945,2.075330
309.918152,2.076046
308.863037,2.055750
307.777710,2.051483
306.720764,2.036097
305.638458,2.027638
304.584473,2.022874
303.529388,2.013831
302.446472,2.024472
301.394470,2.006424
300.311401,2.002879
299.258728,2.001420
298.208679,1.985830
297.128113,1.988585
296.075867,1.977178
294.995789,1.966093
293.947113,1.935724
292.898346,1.934016
291.818176,1.915930
290.768768,1.955942
289.692841,1.955580
288.645508,1.920877
287.567078,1.919460
286.519714,1.936835
285.474243,1.891257
284.398834,1.910610
283.351166,1.907915
282.277039,1.902865
281.233398,1.892149
280.187775,1.884545
279.113678,1.880117
278.070984,1.871503
276.998230,1.862567
275.954803,1.856023
274.913239,1.846572
273.841431,1.837834
272.798676,1.832471
271.729095,1.823789
270.688141,1.816016
269.647156,1.808439
268.577606,1.801749
267.537903,1.794239
266.469513,1.786771
265.430267,1.779948
264.391541,1.772903
263.324341,1.765675
262.286346,1.758651
261.219879,1.751349
260.182617,1.744219
259.116882,1.736828
258.080292,1.729634
257.044220,1.722324
255.979889,1.714982
254.944473,1.707563
253.880539,1.700383
252.845917,1.693553
251.811783,1.685786
250.749054,1.678952
249.715469,1.672202
248.653702,1.664645
247.620743,1.657795
246.588425,1.650869
245.527664,1.643900
244.495880,1.636552
243.435699,1.629634
242.404724,1.622695
241.374191,1.615285
240.315109,1.607731
239.284927,1.601065
238.226700,1.594323
237.197678,1.587070
236.168808,1.579785
235.111435,1.572248
234.083023,1.565753
233.026581,1.558647
231.999146,1.551170
230.943344,1.543928
229.916321,1.537177
228.889725,1.530466
227.835098,1.523375
226.809311,1.516327
225.755020,1.509191
224.729706,1.502496
223.705017,1.495296
222.651978,1.487751
221.627563,1.480743
220.574936,1.474379
219.551453,1.467051
218.528320,1.460255
217.476990,1.452876
216.454086,1.445583
215.403030,1.439180
214.381119,1.432818
213.359650,1.425652
212.309784,1.418062
211.288467,1.411516
210.239288,1.404460
209.218857,1.397397
208.198593,1.390521
207.150314,1.383705
206.130768,1.376681
205.083145,1.370006
204.064178,1.362831
203.017181,1.356531
201.998917,1.349292
200.980682,1.342420
199.934479,1.335293
198.917053,1.328722
197.871597,1.321926
196.854599,1.314902
195.837860,1.308343
194.793198,1.301677
193.777145,1.295143
192.733261,1.288227
191.717819,1.281240
190.702438,1.274686
189.659210,1.268186
188.644592,1.261106
187.602036,1.253659
186.587891,1.247028
185.573990,1.240559
184.532288,1.233570
183.518967,1.226667
182.477722,1.220021
181.464981,1.213135
180.424332,1.206072
179.411987,1.199370
178.400040,1.192555
177.360168,1.185452
176.348740,1.178561
175.309387,1.171385
174.298386,1.164722
173.287674,1.158095
172.249207,1.151011
171.239014,1.144180
170.200882,1.137039
169.191177,1.130860
168.181778,1.124189
167.144577,1.117016
166.135559,1.110684
165.098740,1.104462
164.090332,1.097328
163.082077,1.090358
162.046021,1.083959
161.038269,1.076775
160.002731,1.070154
158.995468,1.062948
157.988373,1.056636
156.953629,1.049779
155.947006,1.043087
154.912628,1.036393
153.906540,1.029498
152.872665,1.022567
151.866943,1.015954
150.861435,1.009435
149.828308,1.002465
148.823257,0.995825
147.790482,0.989090
146.785843,0.982568
145.781494,0.976292
144.749481,0.969167
143.745499,0.962396
142.713791,0.956134
141.710312,0.949964
140.707001,0.943238
139.676010,0.936340
138.673050,0.930256
137.642410,0.924162
136.639954,0.917969
135.637665,0.911035
134.607697,0.904060
133.605728,0.897500
132.576187,0.890642
131.574677,0.883683
130.573288,0.877131
129.544357,0.870055
128.543365,0.863394
127.514816,0.856781
126.514236,0.849929
125.486031,0.843004
124.485847,0.836388
123.485794,0.830202
122.458206,0.822575
121.458488,0.816398
120.431213,0.809794
119.431938,0.803183
118.432793,0.796396
117.406090,0.789573
116.407249,0.782823
115.380898,0.776536
114.382469,0.769432
113.384209,0.762547
112.358353,0.755320
111.360374,0.748390
110.334877,0.741639
109.337242,0.734834
108.339752,0.727786
107.314751,0.720887
106.317566,0.714108
105.292931,0.707301
104.296089,0.700372
103.299408,0.693519
102.275162,0.686500
101.278740,0.679854
100.254860,0.673035
99.258766,0.666160
98.235176,0.658559
97.239342,0.651640
96.243660,0.645011
95.220520,0.638043
94.225143,0.631129
93.202278,0.623989
92.207146,0.617100
91.212204,0.610554
90.189713,0.603237
89.195007,0.595941
88.172844,0.589000
87.178368,0.582020
86.184090,0.575209
85.162262,0.568337
84.168190,0.561432
83.146698,0.554220
82.152832,0.547484
81.159180,0.540765
80.137978,0.533643
79.144493,0.526937
78.123581,0.519897
77.130333,0.512966
76.109657,0.506369
75.116653,0.499251
74.123802,0.492335
73.103401,0.485532
72.110718,0.478667
71.090614,0.471364
70.098129,0.464603
69.105782,0.457667
68.085960,0.450677
67.093765,0.443365
66.074165,0.436552
65.082191,0.429418
64.090363,0.422391
63.071014,0.415040
62.079334,0.408095
61.060219,0.400521
60.068707,0.393699
59.077309,0.387215
58.058414,0.380315
57.067219,0.373322
56.048508,0.365958
55.057423,0.359178
54.066441,0.352637
53.048004,0.345712
52.057190,0.338622
51.038876,0.332012
50.048187,0.325407
49.030090,0.318401
48.039543,0.311905
47.049091,0.304902
46.031155,0.298154
45.040871,0.291232
44.023075,0.284302
43.032837,0.278605
42.042747,0.271849
41.025146,0.264995
40.035152,0.258548
39.017700,0.252059
38.027767,0.245267
37.037971,0.238376
36.020664,0.231441
35.030949,0.224990
34.013752,0.218317
33.024105,0.211532
32.034546,0.205560
31.017496,0.198549
30.028051,0.192262
29.011093,0.185509
28.021708,0.178940
27.032337,0.172623
26.015507,0.165911
25.026239,0.160124
24.009489,0.153634
23.020323,0.147124
22.003643,0.140387
21.014462,0.133906
20.025364,0.127685
19.008806,0.121468
18.019766,0.114661
17.003239,0.108165
16.014252,0.102284
15.025263,0.095897
14.008805,0.089604
13.019885,0.083300
12.003469,0.076974
11.014585,0.071037
10.025690,0.064762
9.009326,0.058015
8.020486,0.051971
7.004147,0.046073
6.015329,0.039497
5.026494,0.032713
4.010182,0.025922
3.021359,0.019012
2.005085,0.011140
1.016323,0.004378
0.000000,0.000942
-0.988760,0.004354
-1.977628,0.011542
-2.993903,0.019523
-3.982724,0.026695
-4.999010,0.033761
-5.987844,0.040610
-6.976689,0.047380
-7.993001,0.053919
-8.981867,0.060145
-9.998205,0.067002
-10.987100,0.073915
-11.976009,0.080243
-12.992398,0.086532
-13.981344,0.092921
-14.997828,0.099629
-15.986764,0.106175
-16.975830,0.112666
-17.992279,0.119125
-18.981396,0.125534
-19.997953,0.132557
-20.987076,0.138717
-21.976229,0.145239
-22.992882,0.151724
-23.982100,0.158208
-24.998877,0.164706
-25.988115,0.171345
-27.004971,0.178138
-27.994287,0.184564
-28.983698,0.190873
-30.000628,0.197770
-30.990124,0.203694
-32.007195,0.209958
-32.996784,0.216421
-33.986423,0.222789
-35.003597,0.229086
-35.993340,0.235729
-37.010670,0.242435
-38.000465,0.248853
-38.990421,0.255286
-40.007820,0.261918
-40.997894,0.268220
-42.015411,0.275237
-43.005608,0.281654
-43.995815,0.287953
-45.013580,0.294647
-46.003922,0.300943
-47.021828,0.308022
-48.012356,0.314500
-49.002903,0.320876
-50.021027,0.327360
-51.011715,0.333954
-52.029995,0.340916
-53.020840,0.346935
-54.039330,0.352973
-55.030327,0.360299
-56.021404,0.366842
-57.040096,0.373472
-58.031345,0.379714
-59.050201,0.386716
-60.041626,0.393004
-61.033192,0.399185
-62.052322,0.405914
-63.044006,0.412627
-64.063324,0.419705
-65.055206,0.426090
-66.047234,0.432274
-67.066856,0.439101
-68.059021,0.445942
-69.078842,0.452751
-70.071220,0.459802
-71.063690,0.466419
-72.083885,0.472913
-73.076561,0.479527
-74.096924,0.486394
-75.089882,0.493109
-76.082840,0.500085
-77.103592,0.506746
-78.096825,0.513588
-79.117760,0.520521
-80.111282,0.527242
-81.132401,0.534084
-82.126167,0.540851
-83.120049,0.547645
-84.141541,0.554297
-85.135674,0.560998
-86.157478,0.567785
-87.151802,0.574378
-88.146248,0.581030
-89.168503,0.587588
-90.163208,0.594533
-91.185692,0.600912
-92.180725,0.607401
-93.175774,0.614537
-94.198723,0.621327
-95.194168,0.628230
-96.217300,0.635118
-97.213036,0.641735
-98.208771,0.648276
-99.232430,0.655545
-100.228539,0.662420
-101.252525,0.669210
-102.248917,0.675969
-103.273132,0.683267
-104.269897,0.690294
-105.266708,0.697275
-106.291451,0.704297
-107.288658,0.711118
-108.313667,0.718750
-109.311195,0.725525
-110.308838,0.731886
-111.334366,0.739363
-112.332390,0.746715
-113.358223,0.753780
-114.356590,0.760504
-115.355034,0.767245
-116.381378,0.774590
-117.380180,0.781913
-118.406998,0.789071
-119.406204,0.795724
-120.405457,0.803065
-121.432785,0.809871
-122.432487,0.816506
-123.460159,0.823422
-124.460197,0.830718
-125.460442,0.837768
-126.488708,0.844869
-127.489258,0.851715
-128.517868,0.858911
-129.518845,0.865822
-130.547852,0.873084
-131.549271,0.879861
-132.550751,0.886759
-133.580383,0.893722
-134.582321,0.900308
-135.612335,0.907275
-136.614731,0.913927
-137.617218,0.920647
-138.647842,0.927520
-139.650818,0.934265
-140.681870,0.941101
-141.685287,0.947674
-142.688721,0.954946
-143.720413,0.962544
-144.724442,0.969393
-145.756607,0.976231
-146.760956,0.983360
-147.765610,0.989932
-148.798370,0.997463
-149.803421,1.004690
-150.836700,1.011346
-151.842133,1.018607
-152.847931,1.025402
-153.881805,1.032825
-154.887970,1.040234
-155.922409,1.047242
-156.929031,1.053948
-157.963867,1.061277
-158.971085,1.068317
-159.978378,1.075452
-161.013962,1.082584
-162.021667,1.089881
-163.057724,1.097107
-164.066025,1.104059
-165.074585,1.110491
-166.111404,1.117799
-167.120285,1.125005
-168.157608,1.132359
-169.167191,1.138848
-170.176971,1.145070
-171.214981,1.152748
-172.225204,1.160089
-173.263855,1.166768
-174.274521,1.173542
-175.285553,1.180305
-176.324890,1.187290
-177.336456,1.194081
-178.376373,1.201060
-179.388412,1.207843
-180.400757,1.214663
-181.441315,1.221924
-182.454147,1.229201
-183.495514,1.236403
-184.508820,1.243175
-185.550613,1.250485
-186.564468,1.257331
-187.578674,1.264236
-188.621399,1.271108
-189.636093,1.278113
-190.679306,1.285076
-191.694565,1.291808
-192.710175,1.298641
-193.754181,1.305965
-194.770416,1.312957
-195.814987,1.320050
-196.831604,1.327372
-197.848785,1.333851
-198.894333,1.340876
-199.911850,1.347552
-200.957916,1.355367
-201.976120,1.362329
-202.994690,1.368941
-204.041733,1.375971
-205.060837,1.382923
-206.108368,1.389975
-207.128021,1.397137
-208.176392,1.404510
-209.196701,1.411267
-210.217224,1.417999
-211.266266,1.425505
-212.287445,1.432427
-213.337463,1.439437
-214.359314,1.445706
-215.381317,1.452976
-216.432098,1.460286
-217.454987,1.466651
-218.506348,1.474276
-219.529755,1.481570
-220.553619,1.487989
-221.605881,1.495070
-222.630157,1.502285
-223.683304,1.509806
-224.708527,1.516527
-225.733795,1.523597
-226.787674,1.531259
-227.813644,1.538364
-228.868530,1.545661
-229.895386,1.552088
-230.922363,1.559114
-231.977921,1.566293
-233.005432,1.573649
-234.062119,1.580503
-235.090652,1.587204
-236.147690,1.594290
-237.176651,1.601687
-238.206161,1.609076
-239.264648,1.615589
-240.294479,1.622636
-241.353195,1.630281
-242.384155,1.637162
-243.415482,1.644423
-244.475525,1.651291
-245.507080,1.658702
-246.567978,1.666062
-247.600861,1.673050
-248.633804,1.679872
-249.695465,1.687526
-250.729004,1.694384
-251.791702,1.702068
-252.826263,1.708902
-253.860947,1.715923
-254.924576,1.723448
-255.959915,1.730597
-257.024628,1.737902
-258.061157,1.744689
-259.097534,1.751308
-260.162994,1.759137
-261.200470,1.766456
-262.267181,1.773474
-263.305237,1.780446
-264.372437,1.787748
-265.411255,1.794751
-266.450562,1.802307
-267.519135,1.809528
-268.559082,1.816508
-269.628174,1.824391
-270.669189,1.831248
-271.710205,1.838234
-272.780487,1.845985
-273.822571,1.853465
-274.894135,1.860606
-275.936920,1.867261
-276.979767,1.874628
-278.052277,1.882367
-279.096527,1.889829
-280.170044,1.896742
-281.214447,1.903825
-282.259338,1.911439
-283.334320,1.918879
-284.380646,1.925444
-285.455750,1.933420
-286.502502,1.941177
-287.550110,1.947741
-288.626709,1.950385
-289.674500,1.956552
-290.752258,1.963770
-291.801331,1.968788
-292.879486,1.976520
-293.929413,1.980431
-294.979950,1.985018
-296.058533,1.994723
-297.110718,2.001325
-298.191650,2.005206
-299.241791,2.016804
-300.294830,2.022501
-301.378235,2.026129
-302.430420,2.031676
-303.513733,2.038925
-304.567627,2.045859
-305.621613,2.052480
-306.706757,2.058775
-307.761292,2.065123
-308.846619,2.068901
-309.903046,2.074796
-310.959686,2.080457
-312.046173,2.088768
-313.104095,2.093957
-314.191162,2.102888
-315.249969,2.109092
-316.337860,2.114498
-317.397614,2.122290
-318.458191,2.127927
-319.546692,2.135468
-320.608002,2.140810
-321.699249,2.144799
-322.761047,2.151882
-323.822906,2.156712
-324.915100,2.167926
-325.978271,2.178500
-327.071655,2.186202
-328.135742,2.193953
-329.199585,2.184633
-330.295135,2.193876
-331.360321,2.197588
-332.455444,2.179393
-333.522430,2.198155
-334.589600,2.225390
-335.684387,2.234287
-336.754211,2.195477
-337.853516,2.229610
-338.919281,2.240751
-339.987549,2.219810
-341.090393,2.237615
-342.163361,2.274704
-343.261658,2.235734
-344.329803,2.246264
-345.432220,2.262459
-346.508606,2.269592
-347.582672,2.269284
-348.682831,2.270126
-349.751678,2.275178
-350.855194,2.288312
-351.934143,2.302950
-353.013947,2.305412
-354.118896,2.340380
-355.190430,2.313030
-356.290375,2.346162
-357.367188,2.341913
-358.450531,2.367939
-359.563660,2.348250
-360.646667,2.368640
-361.752228,2.356215
-362.825623,2.346260
-363.905334,2.339298
-365.027344,2.422493
-366.103058,2.410447
-367.211273,2.400326
-368.295746,2.402782
-369.383636,2.419489
-370.500031,2.397945
-371.582458,2.426110
-372.690369,2.449469
-373.779755,2.465049
-374.894287,2.384454
-375.982178,2.428267
-377.056580,2.457017
-378.170868,2.449443
-379.260986,2.498996
-380.397736,2.531865
-381.501068,2.492752
-382.590790,2.426715
-383.706635,2.495228
-384.788940,2.456863
-385.891754,2.498836
-386.966095,2.505770
-388.059967,2.491778
-389.179718,2.497731
-390.288086,2.551858
-391.430145,2.553576
-392.526489,2.499463
-393.625488,2.547515
-394.746826,2.504145
-395.841156,2.513191
-396.964233,2.547326
-398.057098,2.576561
-399.142395,2.526807
-400.285919,2.554356
-401.395355,2.558377
-402.523804,2.564426
-403.619019,2.570927
-404.747528,2.582715
-405.849487,2.589849
-406.951721,2.594668
-408.083252,2.600945
-409.186157,2.607556
-410.321167,2.613631
-411.425476,2.619778
-412.529510,2.626190
-413.664703,2.633510
-414.770813,2.640806
-415.908600,2.647512
-417.015564,2.654195
-418.122711,2.662076
-419.262207,2.669977
-420.372345,2.676184
-421.511688,2.683480
-422.620880,2.690853
-423.731598,2.698085
-424.875000,2.705068
-425.986786,2.712085
-427.129211,2.717060
-428.241638,2.724407
-429.385742,2.732349
-430.500763,2.739327
-431.615753,2.746337
-432.761932,2.754539
-433.878998,2.761872
-435.026947,2.769453
-436.143616,2.776548
-437.260956,2.783926
-438.411133,2.791253
-439.530304,2.798746
-440.680176,2.806182
-441.799896,2.813898
-442.921356,2.821317
-444.075714,2.828331
-445.198608,2.834511
-446.350372,2.841546
-447.473785,2.850542
-448.600311,2.857490
-449.757202,2.864126
-450.880341,2.871930
-452.036987,2.880785
-453.165649,2.888161
-454.294586,2.893979
-455.452148,2.901589
-456.579254,2.909174
-457.741028,2.917010
-458.872955,2.923404
-460.033569,2.930322
-461.162628,2.938121
-462.295715,2.945856
-463.462250,2.952034
-464.595459,2.958574
-465.758789,2.966063
-466.891968,2.973766
-467.460907,2.977569
-467.462646,2.976620
-467.462067,2.975756
-467.460144,2.975649
-467.460754,2.976176
