2,RUF RT 12R C-Spec,baseline
Steering Wheel Angle,Yaw Rate
359.011444,2.684267
357.995178,2.676117
357.006439,2.669564
356.017670,2.666371
355.001465,2.663866
354.012695,2.661419
352.996490,2.658963
352.007721,2.656363
351.018951,2.653641
350.002716,2.650823
349.013947,2.641615
347.997711,2.633191
347.008942,2.625338
346.020203,2.617484
345.003998,2.602873
344.015228,2.590722
342.998962,2.582093
342.010223,2.573715
341.021454,2.569947
340.005219,2.565042
339.016449,2.553772
338.000214,2.543990
337.011475,2.541172
336.022736,2.534847
335.006500,2.522267
334.017700,2.512566
333.001465,2.510323
332.012726,2.504546
330.996490,2.490601
330.007721,2.483017
329.018951,2.480022
328.002747,2.472933
327.013977,2.460703
325.997711,2.451660
325.008972,2.448824
324.020203,2.442441
323.003998,2.430539
322.015228,2.421716
320.998962,2.419225
320.010193,2.410646
319.021454,2.398977
318.005219,2.392190
317.016479,2.388116
316.000183,2.379128
315.011414,2.369051
314.022675,2.361499
313.006470,2.358300
312.017700,2.348483
311.001404,2.336361
310.012665,2.331971
309.023926,2.328188
308.007690,2.317607
307.018921,2.305763
306.002686,2.301224
305.013916,2.297848
303.997681,2.286441
303.008911,2.275502
302.020142,2.271107
301.003906,2.266718
300.015137,2.256009
298.998901,2.244718
298.010132,2.240391
297.021332,2.237051
296.005127,2.225472
295.016357,2.214236
294.000153,2.210882
293.011322,2.205783
292.022583,2.194009
291.006378,2.184418
290.017578,2.180481
289.001343,2.174644
288.012573,2.163303
287.023834,2.154022
286.007568,2.150449
285.018768,2.144161
284.002563,2.131513
283.013824,2.123998
281.997528,2.120486
281.008789,2.112783
280.020020,2.100803
279.003784,2.094113
278.014984,2.090116
276.998779,2.082803
276.010010,2.070738
275.021179,2.063868
274.005005,2.058744
273.016235,2.051952
271.999969,2.040841
271.011169,2.032547
270.022430,2.027971
269.006195,2.021086
268.017395,2.011012
267.001190,2.001740
266.012421,1.998832
265.023651,1.991441
264.007385,1.979668
263.018616,1.971116
262.002350,1.967604
261.013611,1.960992
260.024841,1.950101
259.008575,1.940247
258.019806,1.937076
257.003571,1.930736
256.014801,1.919636
254.998566,1.910061
254.009781,1.906192
253.021011,1.900255
252.004791,1.889219
251.015961,1.879403
249.999741,1.875762
249.010956,1.870303
248.022217,1.858698
247.005966,1.849220
246.017166,1.847503
245.000916,1.839168
244.012177,1.826453
243.023422,1.820479
242.007141,1.817038
241.018341,1.807879
240.002121,1.795778
239.013351,1.790432
238.024597,1.786793
237.008316,1.777230
236.019547,1.766185
235.003296,1.759516
234.014542,1.755566
233.025772,1.746897
232.009491,1.735672
231.020752,1.729521
230.004471,1.725358
229.015686,1.716555
227.999451,1.705286
227.010681,1.700128
226.021896,1.695262
225.005646,1.685849
224.016876,1.675063
223.000626,1.669022
222.011841,1.664666
221.023071,1.655464
220.006836,1.646508
219.018051,1.638911
218.001816,1.634346
217.013016,1.624935
216.024261,1.614291
215.007996,1.609982
214.019226,1.603858
213.002960,1.593414
212.014175,1.584431
211.025421,1.581365
210.009140,1.573320
209.020386,1.561921
208.004135,1.554659
207.015366,1.551543
206.026566,1.543107
205.010300,1.531014
204.021530,1.524604
203.005295,1.521327
202.016510,1.512397
201.000275,1.500481
200.011475,1.494376
199.022705,1.491158
198.006454,1.481811
197.017670,1.471185
196.001419,1.464072
195.012619,1.460920
194.023849,1.451633
193.007599,1.440706
192.018814,1.433910
191.002563,1.429673
190.013794,1.422058
189.024994,1.410502
188.008728,1.403492
187.019974,1.400171
186.003708,1.391707
185.014938,1.380027
184.026154,1.373400
183.009888,1.369799
182.021133,1.361917
181.004852,1.349471
180.016098,1.343688
178.999817,1.340625
178.011047,1.330370
177.022247,1.318840
176.005981,1.314987
175.017227,1.310218
174.000961,1.300264
173.012192,1.289206
172.023392,1.285067
171.007111,1.279330
170.018356,1.269995
169.002075,1.260218
168.013321,1.253195
167.024506,1.249797
166.008270,1.239841
165.019485,1.229778
164.003220,1.223061
163.014450,1.218048
162.025650,1.210516
161.009415,1.200203
160.020615,1.192567
159.004333,1.188854
158.015564,1.180708
157.026764,1.169212
156.010544,1.162153
155.021729,1.158801
154.005478,1.150449
153.016708,1.138326
152.000443,1.132930
151.011673,1.129034
150.022858,1.120095
149.006622,1.108435
148.017822,1.102907
147.001556,1.099138
146.012772,1.088760
145.023972,1.078639
144.007736,1.072928
143.018936,1.068706
142.002655,1.059891
141.013901,1.048739
140.025085,1.041993
139.008850,1.038287
138.020050,1.030409
137.003769,1.018430
136.014999,1.012131
135.026199,1.008887
134.009964,0.999206
133.021164,0.987914
132.004913,0.983738
131.016113,0.978705
130.027283,0.968578
129.011078,0.958284
128.022263,0.953488
127.006020,0.948859
126.017204,0.937971
125.000938,0.927509
124.012169,0.923446
123.023369,0.918744
122.007118,0.907754
121.018311,0.898318
120.002029,0.893414
119.013283,0.887982
118.024460,0.878013
117.008224,0.868183
116.019402,0.863180
115.003166,0.857825
114.014351,0.847865
113.025566,0.838152
112.009323,0.832866
111.020508,0.827757
110.004265,0.817612
109.015457,0.808036
108.026642,0.802852
107.010399,0.797536
106.021584,0.787737
105.005371,0.777981
104.016556,0.772670
103.027771,0.767361
102.011497,0.757833
101.022690,0.747637
100.006439,0.742343
99.017632,0.737943
98.001389,0.727294
97.012573,0.717833
96.023758,0.713006
95.007515,0.707523
94.018700,0.697511
93.002457,0.687658
92.013649,0.682275
91.024887,0.678051
90.008591,0.667518
89.019775,0.657779
88.003563,0.652403
87.014717,0.647866
86.025963,0.637353
85.009674,0.627711
84.020859,0.621575
83.004631,0.616558
82.015800,0.608663
81.027039,0.597988
80.010742,0.590937
79.021935,0.587215
78.005684,0.579253
77.016876,0.568187
76.000633,0.560239
75.011818,0.556200
74.023056,0.549365
73.006760,0.539566
72.017944,0.529787
71.001701,0.524148
70.012894,0.519854
69.024109,0.510777
68.007835,0.499512
67.018997,0.493585
66.002754,0.488908
65.013939,0.480751
64.025177,0.470435
63.008881,0.462255
62.020069,0.458944
61.003826,0.451785
60.015011,0.440886
59.026226,0.431844
58.009926,0.428173
57.021172,0.422410
56.004875,0.412567
55.016060,0.401636
54.027275,0.396274
53.011005,0.391865
52.022217,0.383940
51.005924,0.373119
50.017109,0.365878
49.000866,0.359311
48.012054,0.354046
47.023270,0.345309
46.006969,0.334322
45.018211,0.328952
44.001915,0.324107
43.013073,0.315375
42.024315,0.305017
41.008018,0.296223
40.019230,0.292528
39.002964,0.287054
38.014122,0.278697
37.025364,0.266420
36.009068,0.261146
35.020279,0.255784
34.003983,0.249127
33.015167,0.239441
32.026382,0.229148
31.010088,0.222951
30.021326,0.218251
29.005032,0.211373
28.016247,0.200928
27.027433,0.191912
26.011137,0.184547
25.022348,0.180942
24.006052,0.175191
23.017294,0.166165
22.000998,0.154118
21.012157,0.147129
20.023371,0.142080
19.007101,0.136616
18.018314,0.128391
17.002018,0.117299
16.013233,0.108741
15.024419,0.103893
14.008123,0.098889
13.019336,0.091132
12.003040,0.080345
11.014254,0.072047
10.025441,0.066878
9.009144,0.061271
8.020358,0.053042
7.004062,0.042003
6.015275,0.033921
5.026462,0.030022
4.010166,0.024587
3.021353,0.017478
2.005083,0.010435
1.016323,0.005224
0.000000,0.001788
-0.988760,0.004771
-1.977626,0.010309
-2.993896,0.019085
-3.982709,0.025419
-4.998979,0.029640
-5.987792,0.036029
-6.976604,0.045970
-7.992875,0.056640
-8.981688,0.064815
-9.997957,0.069316
-10.986771,0.074370
-11.975583,0.082590
-12.991853,0.093026
-13.980665,0.101777
-14.996989,0.107063
-15.985749,0.111502
-16.974613,0.119471
-17.990831,0.130062
-18.979698,0.139703
-19.995966,0.145497
-20.984779,0.149226
-21.973593,0.157130
-22.989862,0.168048
-23.978676,0.178010
-24.994999,0.182595
-25.983759,0.187078
-27.000082,0.195359
-27.988842,0.203993
-28.977654,0.214360
-29.993923,0.221077
-30.982737,0.224781
-31.999060,0.232301
-32.987873,0.243057
-33.976685,0.252149
-34.992954,0.257311
-35.981770,0.262178
-36.998093,0.270888
-37.986855,0.281222
-38.975719,0.288871
-39.991932,0.294205
-40.980801,0.298717
-41.997017,0.308980
-42.985882,0.319765
-43.974697,0.326307
-44.990967,0.329906
-45.979778,0.337649
-46.996048,0.348448
-47.984913,0.356955
-48.973728,0.361346
-49.989998,0.367382
-50.978813,0.376967
-51.995083,0.386283
-52.983894,0.392180
-54.000217,0.396769
-54.989029,0.405243
-55.977844,0.416342
-56.994110,0.424644
-57.982929,0.428535
-58.999199,0.434344
-59.988010,0.445792
-60.976871,0.455031
-61.993145,0.460048
-62.981956,0.464018
-63.998226,0.474361
-64.987038,0.485043
-65.975906,0.490535
-66.992180,0.494766
-67.980995,0.503304
-68.997253,0.514216
-69.986069,0.521421
-70.974884,0.524779
-71.991211,0.533380
-72.980019,0.544557
-73.996292,0.551035
-74.985161,0.554634
-75.973915,0.563512
-76.990234,0.573827
-77.979050,0.581069
-78.995323,0.585453
-79.984192,0.593379
-81.000404,0.604381
-81.989273,0.611240
-82.978142,0.615530
-83.994354,0.623613
-84.983215,0.634179
-85.999489,0.641459
-86.988304,0.646049
-87.977112,0.652687
-88.993439,0.663692
-89.982254,0.672527
-90.998520,0.676105
-91.987381,0.682839
-92.976151,0.693120
-93.992470,0.702322
-94.981339,0.706065
-95.997551,0.713260
-96.986420,0.723077
-97.975182,0.732195
-98.991501,0.736618
-99.980316,0.742970
-100.996635,0.753353
-101.985451,0.762371
-103.001717,0.766982
-103.990585,0.772348
-104.979347,0.783199
-105.995674,0.792872
-106.984535,0.795355
-108.000801,0.803905
-108.989616,0.815020
-109.978432,0.821855
-110.994759,0.826806
-111.983620,0.833105
-112.999840,0.844525
-113.988701,0.852157
-114.977516,0.856654
-115.993790,0.863641
-116.982597,0.873932
-117.998917,0.883065
-118.987793,0.886509
-119.976540,0.892938
-120.992874,0.904778
-121.981682,0.912483
-122.998009,0.916886
-123.986816,0.923724
-124.975624,0.934335
-125.991959,0.942595
-126.980713,0.946877
-127.997040,0.953961
-128.985855,0.964623
-130.002182,0.972105
-130.991043,0.977486
-131.979797,0.984161
-132.996124,0.994419
-133.984924,1.002958
-135.001266,1.007217
-135.990128,1.013652
-136.978897,1.024099
-137.995209,1.033852
-138.984009,1.037321
-140.000351,1.043201
-140.989212,1.055381
-141.977966,1.064050
-142.994293,1.065067
-143.983093,1.074868
-144.999435,1.086734
-145.988190,1.091478
-146.977051,1.096803
-147.993378,1.105383
-148.982193,1.115840
-149.998520,1.122400
-150.987274,1.126677
-151.976135,1.135623
-152.992462,1.145562
-153.981277,1.151931
-154.997604,1.157073
-155.986404,1.165094
-157.002731,1.175900
-157.991592,1.183178
-158.980362,1.186693
-159.996674,1.195022
-160.985504,1.206663
-162.001816,1.213534
-162.990631,1.216741
-163.979446,1.224794
-164.995819,1.236704
-165.984589,1.243437
-167.000900,1.246423
-167.989716,1.255292
-168.978577,1.266916
-169.994904,1.273514
-170.983719,1.276906
-172.000046,1.285646
-172.988800,1.297252
-173.977661,1.303203
-174.993927,1.306978
-175.982803,1.315913
-176.999130,1.327798
-177.987946,1.332630
-178.976807,1.337335
-179.993011,1.346454
-180.981888,1.357157
-181.998260,1.363000
-182.987030,1.367559
-184.003342,1.376921
-184.992157,1.388155
-185.981033,1.393922
-186.997345,1.397463
-187.986160,1.406040
-189.002487,1.418816
-189.991287,1.423828
-190.980164,1.427405
-191.996368,1.437243
-192.985306,1.448379
-194.001617,1.453977
-194.990387,1.457497
-195.979248,1.468657
-196.995514,1.478718
-197.984390,1.482633
-199.000702,1.488832
-199.989532,1.498559
-200.978394,1.507486
-201.994644,1.513624
-202.983521,1.518799
-203.999786,1.528849
-204.988647,1.538593
-206.004990,1.544268
-206.993790,1.549412
-207.982666,1.558056
-208.998932,1.569626
-209.987793,1.572757
-211.004120,1.579226
-211.992920,1.591531
-212.981796,1.597559
-213.998062,1.601300
-214.986923,1.612557
-216.003265,1.622932
-216.992065,1.625909
-217.980942,1.631557
-218.997208,1.643593
-219.986069,1.652269
-221.002350,1.655144
-221.991211,1.663156
-222.980072,1.675319
-223.996338,1.682001
-224.985199,1.685053
-226.001480,1.693866
-226.990341,1.705724
-227.979218,1.712125
-228.995483,1.715347
-229.984344,1.723930
-231.000626,1.736048
-231.989487,1.742670
-233.005737,1.745008
-233.994614,1.754965
-234.983490,1.767060
-235.999741,1.770070
-236.988617,1.775465
-238.004898,1.787899
-238.993744,1.797009
-239.982620,1.799709
-240.998901,1.806041
-241.987823,1.818592
-243.004013,1.827446
-243.992950,1.829593
-244.981827,1.836501
-245.998077,1.848799
-246.986954,1.857574
-248.003220,1.860854
-248.992081,1.866842
-249.980896,1.878906
-250.997223,1.888049
-251.986099,1.891117
-253.002350,1.897422
-253.991226,1.909624
-254.980042,1.918613
-255.996399,1.920068
-256.985291,1.928611
-258.001556,1.941679
-258.990417,1.947275
-260.006683,1.949851
-260.995544,1.960241
-261.984344,1.972443
-263.000671,1.975227
-263.989624,1.980781
-265.005829,1.993422
-265.994751,2.000657
-266.983490,2.004491
-267.999878,2.012970
-268.988739,2.024547
-270.005005,2.031106
-270.993896,2.035242
-271.982666,2.043582
-272.999054,2.055264
-273.987946,2.061504
-275.004181,2.064873
-275.993073,2.074200
-276.981873,2.085489
-277.998230,2.091453
-278.987000,2.095775
-280.003387,2.105647
-280.992279,2.115976
-281.981079,2.122256
-282.997406,2.125729
-283.986206,2.135230
-285.002563,2.146710
-285.991455,2.152901
-287.007721,2.156363
-287.996582,2.165904
-288.985382,2.176975
-290.001740,2.184033
-290.990540,2.186929
-292.006897,2.195981
-292.995789,2.208189
-293.984589,2.214304
-295.000916,2.217416
-295.989716,2.226592
-297.006104,2.238716
-297.994965,2.244915
-298.983795,2.247916
-300.000183,2.257204
-300.988922,2.269184
-302.005280,2.275699
-302.994171,2.278614
-303.982971,2.287561
-304.999359,2.300001
-305.988129,2.306125
-307.004486,2.308484
-307.993286,2.319006
-309.009613,2.330866
-309.998535,2.334656
-310.987335,2.339712
-312.003693,2.348979
-312.992493,2.360720
-314.008850,2.367637
-314.997742,2.370425
-315.986542,2.379728
-317.002899,2.391126
-317.991669,2.397168
-319.008057,2.401542
-319.996857,2.410402
-320.985748,2.421806
-322.002106,2.427289
-322.990906,2.432032
-324.007233,2.441238
-324.996063,2.452414
-325.984955,2.458538
-327.001312,2.462064
-327.990112,2.471794
-329.006470,2.483108
-329.995300,2.489645
-330.984161,2.492762
-332.000519,2.501804
-332.989349,2.514043
-334.005676,2.520619
-334.994507,2.523506
-336.010864,2.533052
-336.999695,2.544941
-337.988556,2.550785
-339.004913,2.553963
-339.993744,2.563427
-341.010071,2.575813
-341.998871,2.581234
-342.987793,2.583628
-344.004181,2.594069
-344.992920,2.606679
-346.009308,2.611552
-346.998138,2.614480
-347.987030,2.625978
-349.003357,2.637717
-349.992188,2.640210
-351.008545,2.645693
-351.997345,2.658671
-352.986237,2.666670
-354.002502,2.669648
-354.991425,2.677124
-356.007812,2.689614
-356.996613,2.697094
-357.985474,2.699448
-359.001740,2.709188
