2,RUF RT 12R AWD,baseline
Steering Wheel Angle,Yaw Rate
467.557037,2.951167
467.467712,2.952111
467.374512,2.955814
467.290009,2.958473
467.219360,2.961229
466.600037,2.960367
465.436432,2.955303
464.266754,2.950840
463.153687,2.946971
462.030334,2.939483
460.945099,2.932056
459.858887,2.925432
458.740936,2.917977
457.653015,2.910985
456.532196,2.903777
455.441223,2.896625
454.314026,2.884544
453.201538,2.873976
452.073029,2.864245
450.906097,2.856529
449.770020,2.849937
448.603210,2.843384
447.474609,2.838936
446.354614,2.832701
445.203125,2.825684
444.079468,2.820628
442.925781,2.814957
441.805969,2.808839
440.687134,2.801682
439.535126,2.794288
438.414551,2.787745
437.266998,2.780566
436.150574,2.772652
435.032349,2.764805
433.882690,2.758145
432.767212,2.751618
431.623169,2.743596
430.508514,2.734965
429.392365,2.727768
428.248047,2.720591
427.136902,2.712265
425.993927,2.704651
424.881409,2.697359
423.738281,2.690476
422.627777,2.683100
421.518677,2.675872
420.379456,2.668152
419.269928,2.660765
418.130432,2.653476
417.023834,2.646247
415.917145,2.638899
414.779327,2.631725
413.673309,2.624759
412.537659,2.617114
411.433167,2.609838
410.329102,2.602746
409.194855,2.595485
408.091736,2.588591
406.959106,2.581574
405.857635,2.574242
404.755890,2.567507
403.624664,2.560503
402.525330,2.553650
401.395935,2.546294
400.296722,2.539207
399.167419,2.531866
398.069763,2.525142
396.973328,2.518281
395.846802,2.510508
394.750366,2.503188
393.624023,2.496219
392.529236,2.489638
391.435577,2.482495
390.311340,2.475040
389.217377,2.468778
388.094116,2.462019
387.002472,2.455587
385.911743,2.448349
384.790558,2.441163
383.699402,2.434081
382.578461,2.427483
381.489563,2.420874
380.401337,2.413419
379.282440,2.406494
378.194244,2.400278
377.076935,2.393732
375.990906,2.386860
374.904724,2.380044
373.788788,2.373460
372.704041,2.366558
371.589081,2.359381
370.504639,2.353037
369.391205,2.346600
368.308990,2.340153
367.226929,2.332928
366.114136,2.325641
365.031982,2.320185
363.917816,2.363425
362.822449,2.372185
361.742523,2.352658
360.630402,2.278643
359.557587,2.342451
358.453613,2.297830
357.389801,2.334960
356.317810,2.316932
355.213745,2.314438
354.136169,2.301258
353.024902,2.282599
351.940674,2.279356
350.862091,2.271428
349.758301,2.271430
348.688995,2.268786
347.593231,2.261739
346.525116,2.253422
345.452820,2.241817
344.347137,2.229650
343.269928,2.226672
342.167267,2.216941
341.099060,2.213596
340.005554,2.213152
338.941040,2.201811
337.873444,2.195846
336.772888,2.189078
335.699097,2.179487
334.598328,2.179956
333.531250,2.174324
332.468597,2.163500
331.377411,2.153825
330.312744,2.143020
329.216461,2.133668
328.148438,2.132655
327.081970,2.132138
325.989746,2.127657
324.930634,2.119269
323.841492,2.106258
322.779541,2.091262
321.715027,2.099257
320.620483,2.092597
319.558594,2.094433
318.467987,2.091467
317.413940,2.078431
316.359100,2.101658
315.270660,2.082052
314.208893,2.059668
313.118073,2.040751
312.054077,2.029990
310.966980,2.033916
309.911682,2.029511
308.860138,2.040194
307.782043,2.029055
306.730774,2.019936
305.644623,2.008050
304.584198,2.028582
303.525848,2.018064
302.443024,1.981358
301.392517,2.001982
300.314911,1.994619
299.262726,1.979134
298.209198,1.948983
297.125000,1.967522
296.073792,1.975349
294.997528,1.956324
293.948059,1.964999
292.897339,1.957737
291.817383,1.954289
290.767822,1.948782
289.692566,1.931904
288.646118,1.930705
287.568207,1.917559
286.518768,1.892477
285.471802,1.908621
284.398743,1.901689
283.354340,1.883976
282.279205,1.872787
281.231537,1.877698
280.186188,1.853941
279.114929,1.877040
278.072449,1.842166
276.999451,1.857490
275.954285,1.854275
274.911835,1.846830
273.841949,1.837086
272.799866,1.827659
271.728546,1.820901
270.687775,1.813243
269.647675,1.805364
268.578186,1.796869
267.537628,1.790657
266.469727,1.782967
265.430756,1.775258
264.391602,1.768591
263.324249,1.761107
262.286407,1.753934
261.220062,1.746422
260.182709,1.739181
259.117035,1.731881
258.080505,1.724904
257.044495,1.717355
255.979935,1.710079
254.944260,1.703656
253.880692,1.696668
252.846329,1.688967
251.812012,1.681644
250.749039,1.673984
249.715118,1.668410
248.653702,1.660932
247.621185,1.653180
246.588394,1.645963
245.527191,1.639423
244.495560,1.632695
243.435852,1.625430
242.404877,1.618363
241.373978,1.611314
240.314880,1.604707
239.285172,1.597793
238.227036,1.590243
237.197571,1.583466
236.168488,1.576857
235.111267,1.570152
234.083267,1.562779
233.026718,1.555105
231.998840,1.548414
230.943008,1.542053
229.916458,1.534877
228.889984,1.527789
227.835007,1.520905
226.808899,1.514138
225.754868,1.507431
224.729782,1.500622
223.704910,1.493492
222.651733,1.486146
221.627380,1.479172
220.575043,1.472114
219.551437,1.465082
218.528107,1.458059
217.476608,1.451277
216.453903,1.444842
215.403152,1.437907
214.381088,1.430879
213.359268,1.424231
212.309479,1.417364
211.288483,1.410143
210.239288,1.402914
209.218658,1.396662
208.198593,1.389743
207.150421,1.382448
206.130768,1.375159
205.083054,1.368231
204.064041,1.361456
203.017136,1.354309
201.998749,1.347139
200.980591,1.340400
199.934494,1.333552
198.917023,1.326532
197.871552,1.319146
196.854507,1.312477
195.837921,1.305652
194.793365,1.298674
193.777252,1.292002
192.733200,1.284642
191.717606,1.278015
190.702362,1.271306
189.659286,1.264254
188.644684,1.257201
187.602005,1.249840
186.587814,1.243565
185.574020,1.236793
184.532272,1.229493
183.518890,1.222444
182.477615,1.216029
181.464981,1.209225
180.424377,1.202395
179.412109,1.195543
178.399994,1.188816
177.360062,1.182402
176.348618,1.175888
175.309341,1.169236
174.298370,1.162463
173.287598,1.156128
172.249084,1.149357
171.238937,1.142349
170.200882,1.135192
169.191177,1.129141
168.181747,1.122125
167.144562,1.114919
166.135574,1.107788
165.098724,1.100984
164.090256,1.094394
163.082062,1.087719
162.046082,1.080328
161.038269,1.073368
160.002655,1.066499
158.995422,1.060385
157.988449,1.053147
156.953659,1.046355
155.946976,1.040054
154.912582,1.033378
153.906494,1.026978
152.872620,1.020294
151.866959,1.013889
150.861435,1.007515
149.828278,1.000582
148.823242,0.993782
147.790466,0.986944
146.785889,0.980332
145.781509,0.973407
144.749466,0.966430
143.745453,0.960194
142.713837,0.953096
141.710312,0.946544
140.706955,0.940128
139.675995,0.932893
138.673065,0.926093
137.642456,0.919356
136.639954,0.912804
135.637634,0.905937
134.607712,0.899047
133.605728,0.892554
132.576187,0.885965
131.574677,0.879414
130.573318,0.872572
129.544373,0.865926
128.543381,0.859257
127.514809,0.852343
126.514206,0.845911
125.486031,0.839029
124.485855,0.832324
123.485794,0.826213
122.458176,0.819053
121.458488,0.812816
120.431252,0.805968
119.431999,0.798980
118.432770,0.792806
117.406059,0.786177
116.407249,0.779923
115.380936,0.773100
114.382446,0.766328
113.384171,0.760054
112.358345,0.753488
111.360397,0.746637
110.334908,0.739543
109.337227,0.733228
108.339729,0.726266
107.314728,0.719686
106.317551,0.713102
105.292946,0.705904
104.296074,0.698998
103.299385,0.692301
102.275131,0.685682
101.278755,0.678865
100.254868,0.671548
99.258743,0.665139
98.235153,0.658229
97.239349,0.651466
96.243668,0.644673
95.220505,0.637945
94.225113,0.631313
93.202263,0.624324
92.207138,0.617402
91.212189,0.611123
90.189705,0.604424
89.195000,0.597429
88.172859,0.589872
87.178352,0.583373
86.184074,0.576964
85.162254,0.569490
84.168182,0.562314
83.146675,0.555398
82.152817,0.548694
81.159180,0.541964
80.137978,0.534255
79.144493,0.527489
78.123573,0.520870
77.130341,0.514038
76.109665,0.506351
75.116646,0.499497
74.123802,0.492572
73.103416,0.485622
72.110733,0.478192
71.090607,0.471005
70.098122,0.464304
69.105789,0.457284
68.085960,0.449574
67.093773,0.442521
66.074165,0.435735
65.082184,0.429130
64.090363,0.422206
63.071022,0.414911
62.079330,0.407517
61.060211,0.400681
60.068703,0.393924
59.077312,0.386638
58.058422,0.378958
57.067219,0.372445
56.048504,0.365576
55.057419,0.358647
54.066444,0.351563
53.048004,0.344672
52.057186,0.338465
51.038883,0.331574
50.048187,0.324813
49.030087,0.317856
48.039539,0.311574
47.049091,0.305108
46.031155,0.297857
45.040871,0.290789
44.023075,0.284466
43.032837,0.277810
42.042747,0.270911
41.025146,0.263985
40.035152,0.257474
39.017700,0.251185
38.027763,0.244531
37.037971,0.237682
36.020664,0.231392
35.030949,0.225816
34.013748,0.219246
33.024109,0.212510
32.034546,0.206208
31.017492,0.200369
30.028048,0.194324
29.011093,0.187695
28.021708,0.181333
27.032337,0.175209
26.015507,0.169113
25.026241,0.162843
24.009491,0.156478
23.020323,0.150420
22.003643,0.144253
21.014462,0.137585
20.025364,0.131173
19.008808,0.124595
18.019768,0.117868
17.003239,0.111376
16.014254,0.105099
15.025263,0.098630
14.008805,0.091786
13.019884,0.085763
12.003469,0.079242
11.014585,0.072585
10.025690,0.065977
9.009326,0.059278
8.020486,0.052792
7.004147,0.046106
6.015329,0.039541
5.026493,0.033792
4.010181,0.025980
3.021359,0.018591
2.005085,0.010906
1.016323,0.004504
0.000000,0.000930
-0.988760,0.004393
-1.977628,0.011059
-2.993902,0.019502
-3.982724,0.026942
-4.999010,0.033615
-5.987844,0.040325
-6.976689,0.047150
-7.993001,0.054020
-8.981868,0.060524
-9.998205,0.066846
-10.987100,0.073581
-11.976010,0.080328
-12.992398,0.087113
-13.981344,0.093697
-14.997826,0.100372
-15.986764,0.106967
-16.975830,0.113741
-17.992277,0.120607
-18.981398,0.126920
-19.997953,0.133386
-20.987076,0.140107
-21.976229,0.146694
-22.992880,0.153192
-23.982100,0.159574
-24.998877,0.166237
-25.988117,0.172562
-27.004971,0.179014
-27.994287,0.185206
-28.983698,0.191954
-30.000628,0.198634
-30.990128,0.204832
-32.007198,0.211373
-32.996788,0.217839
-33.986427,0.224318
-35.003597,0.230531
-35.993340,0.236482
-37.010670,0.242809
-38.000462,0.249307
-38.990421,0.255608
-40.007820,0.261915
-40.997894,0.268340
-42.015411,0.275038
-43.005608,0.281736
-43.995815,0.287716
-45.013584,0.293664
-46.003922,0.300298
-47.021828,0.306858
-48.012356,0.312594
-49.002903,0.318619
-50.021023,0.325139
-51.011715,0.331638
-52.029995,0.338253
-53.020840,0.344484
-54.039330,0.350966
-55.030327,0.357834
-56.021404,0.364906
-57.040096,0.371600
-58.031345,0.377987
-59.050205,0.384851
-60.041626,0.391709
-61.033188,0.398328
-62.052322,0.404715
-63.044014,0.411237
-64.063324,0.418459
-65.055214,0.424761
-66.047234,0.431275
-67.066849,0.438199
-68.059021,0.444958
-69.078835,0.452279
-70.071213,0.458611
-71.063698,0.464731
-72.083878,0.472043
-73.076561,0.478677
-74.096931,0.485155
-75.089882,0.491681
-76.082825,0.498662
-77.103584,0.505788
-78.096825,0.512237
-79.117775,0.518853
-80.111282,0.525378
-81.132393,0.532935
-82.126160,0.539614
-83.120049,0.545987
-84.141541,0.552785
-85.135658,0.559800
-86.157463,0.566933
-87.151794,0.573879
-88.146255,0.580806
-89.168488,0.588346
-90.163193,0.595729
-91.185669,0.602925
-92.180725,0.609569
-93.175781,0.616483
-94.198700,0.623839
-95.194138,0.631124
-96.217278,0.638046
-97.213013,0.645025
-98.208763,0.651994
-99.232430,0.659307
-100.228539,0.665752
-101.252502,0.672896
-102.248917,0.679596
-103.273132,0.686521
-104.269890,0.693466
-105.266701,0.700187
-106.291458,0.707009
-107.288658,0.713875
-108.313675,0.720818
-109.311157,0.727756
-110.308792,0.734668
-111.334366,0.741843
-112.332397,0.748599
-113.358177,0.755681
-114.356529,0.763103
-115.355026,0.769719
-116.381416,0.776124
-117.380203,0.782817
-118.406960,0.790200
-119.406204,0.796950
-120.405479,0.803697
-121.432793,0.810711
-122.432457,0.817841
-123.460144,0.824922
-124.460220,0.831477
-125.460434,0.838290
-126.488670,0.845221
-127.489220,0.852123
-128.517868,0.858889
-129.518814,0.865849
-130.547836,0.873246
-131.549286,0.879737
-132.550751,0.886631
-133.580353,0.893411
-134.582291,0.900652
-135.612335,0.907330
-136.614716,0.914169
-137.617203,0.921120
-138.647842,0.927959
-139.650787,0.935070
-140.681824,0.941878
-141.685226,0.949178
-142.688782,0.956480
-143.720520,0.962783
-144.724457,0.969630
-145.756531,0.977258
-146.760941,0.984171
-147.765610,0.991376
-148.798416,0.998255
-149.803436,1.005062
-150.836685,1.012606
-151.842163,1.019122
-152.847977,1.025474
-153.881851,1.032729
-154.887985,1.039886
-155.922440,1.046859
-156.929123,1.053367
-157.963959,1.060224
-158.971054,1.067134
-159.978348,1.073895
-161.013916,1.081233
-162.021713,1.087933
-163.057800,1.095128
-164.066010,1.102438
-165.074509,1.109396
-166.111450,1.116358
-167.120438,1.122489
-168.157654,1.129481
-169.167130,1.136383
-170.176987,1.143101
-171.215118,1.149422
-172.225266,1.156419
-173.263794,1.163851
-174.274521,1.171068
-175.285660,1.177020
-176.324921,1.184285
-177.336411,1.191490
-178.376404,1.198548
-179.388458,1.204871
-180.400681,1.212295
-181.441299,1.219421
-182.454285,1.225975
-183.495605,1.233000
-184.508835,1.239810
-185.550644,1.247093
-186.564560,1.253908
-187.578766,1.261132
-188.621445,1.267602
-189.636047,1.274536
-190.679260,1.281745
-191.694641,1.288767
-192.710342,1.295321
-193.754318,1.302261
-194.770416,1.308925
-195.815048,1.316269
-196.831802,1.322820
-197.848907,1.328904
-198.894348,1.335702
-199.911896,1.342694
-200.958130,1.349672
-201.976349,1.356190
-202.994736,1.362983
-204.041702,1.370129
-205.060883,1.377017
-206.108582,1.383795
-207.128174,1.390356
-208.176437,1.397363
-209.196655,1.404453
-210.217361,1.411442
-211.266647,1.418208
-212.287796,1.425000
-213.337524,1.431912
-214.359177,1.439232
-215.381500,1.446329
-216.432404,1.453024
-217.455002,1.460171
-218.506409,1.467589
-219.529846,1.474919
-220.553741,1.481664
-221.606155,1.488157
-222.630249,1.495138
-223.683243,1.502797
-224.708527,1.509390
-225.733932,1.515813
-226.787872,1.523348
-227.813873,1.530026
-228.868668,1.537107
-229.895386,1.544066
-230.922379,1.551185
-231.978088,1.558767
-233.005859,1.566017
-234.062439,1.573038
-235.090668,1.579956
-236.147827,1.587303
-237.176971,1.594204
-238.206314,1.601181
-239.264526,1.608416
-240.294678,1.615791
-241.353851,1.622956
-242.384567,1.629449
-243.415359,1.636635
-244.475449,1.644283
-245.507629,1.651160
-246.568466,1.658318
-247.600983,1.665312
-248.633713,1.672633
-249.695663,1.679992
-250.729446,1.686284
-251.791870,1.693558
-252.826218,1.701278
-253.860992,1.708689
-254.925079,1.715222
-255.960449,1.722273
-257.024780,1.729890
-258.060974,1.737288
-259.097687,1.743754
-260.163300,1.751448
-261.200775,1.758824
-262.267487,1.765990
-263.305573,1.772465
-264.372406,1.779942
-265.411194,1.787670
-266.450897,1.794458
-267.519531,1.801205
-268.559326,1.808401
-269.628296,1.816082
-270.669342,1.823611
-271.710663,1.830174
-272.781097,1.837461
-273.822754,1.845126
-274.894043,1.852686
-275.937042,1.859568
-276.980103,1.866208
-278.052582,1.873799
-279.096741,1.881259
-280.170441,1.888442
-281.215210,1.895051
-282.259735,1.902890
-283.334503,1.910339
-284.380798,1.917201
-285.456360,1.924370
-286.502991,1.929451
-287.550293,1.935546
-288.627106,1.940903
-289.675079,1.949089
-290.752563,1.955725
-291.801636,1.963864
-292.880066,1.970333
-293.929199,1.976356
-294.980011,1.980785
-296.059784,1.986372
-297.110046,1.995166
-298.191681,2.002216
-299.243774,2.008354
-300.294586,2.015541
-301.378082,2.021606
-302.431671,2.027172
-303.513000,2.033044
-304.568207,2.040900
-305.622620,2.042242
-306.705566,2.051763
-307.762329,2.058109
-308.848328,2.061907
-309.902832,2.069845
-310.957855,2.078184
-312.046112,2.087866
-313.105530,2.089599
-314.191864,2.095723
-315.248779,2.104794
-316.338928,2.112143
-317.398468,2.118101
-318.456238,2.126421
-319.546753,2.135293
-320.609406,2.136840
-321.699158,2.138759
-322.759308,2.150076
-323.823242,2.157367
-324.916992,2.164495
-325.978424,2.166970
-327.069214,2.175131
-328.134369,2.185495
-329.202057,2.187600
-330.296387,2.193770
-331.358795,2.201200
-332.454163,2.209952
-333.522827,2.216671
-334.589203,2.218047
-335.684875,2.182453
-336.752350,2.188830
-337.851562,2.218500
-338.923065,2.215472
-339.990753,2.213068
-341.088074,2.235418
-342.160583,2.249391
-343.261719,2.240099
-344.334839,2.246362
-345.435303,2.248476
-346.504730,2.251575
-347.576447,2.255913
-348.681519,2.263010
-349.758118,2.271577
-350.862671,2.273829
-351.933746,2.283446
-353.005493,2.296634
-354.112854,2.299016
-355.193848,2.304459
-356.304474,2.311056
-357.383179,2.313683
-358.457672,2.320240
-359.558502,2.327228
-360.633057,2.327551
-361.743439,2.335513
-362.828705,2.355449
-363.917145,2.361951
-365.032135,2.318318
-366.118073,2.406590
-367.227509,2.374618
-368.304077,2.338229
-369.383820,2.346627
-370.491516,2.355542
-371.573853,2.364602
-372.692078,2.373884
-373.781921,2.379012
-374.896759,2.386677
-375.977722,2.395841
-377.062775,2.406674
-378.184113,2.416759
-379.275909,2.422029
-380.392517,2.428698
-381.476074,2.437977
-382.565186,2.446586
-383.690765,2.453628
-384.785309,2.456763
-385.904785,2.460412
-386.991089,2.467908
-388.083710,2.473499
-389.211395,2.476924
-390.304871,2.480257
-391.425415,2.486202
-392.517426,2.493725
-393.615631,2.499467
-394.743439,2.504880
-395.836823,2.510739
-396.962433,2.520599
-398.062897,2.525733
-399.159241,2.533057
-400.285980,2.541219
-401.385803,2.549563
-402.518127,2.556271
-403.617432,2.563432
-404.746735,2.571209
-405.847748,2.579662
-406.951263,2.586513
-408.084656,2.593488
-409.185944,2.600380
-410.319397,2.608730
-411.425049,2.615563
-412.530731,2.622022
-413.665863,2.629609
-414.770752,2.637335
-415.908203,2.644405
-417.015991,2.650842
-418.123627,2.657302
-419.262085,2.665073
-420.371460,2.672132
-421.511627,2.679541
-422.621613,2.686590
-423.732178,2.693439
-424.874420,2.700552
-425.985199,2.707862
-427.128632,2.715462
-428.242523,2.722741
-429.387146,2.729646
-430.500427,2.737481
-431.615295,2.745425
-432.762878,2.753020
-433.879639,2.760319
-435.027008,2.767691
-436.143494,2.775254
-437.261353,2.782454
-438.411285,2.787959
-439.530273,2.795231
-440.680115,2.803206
-441.800568,2.810673
-442.922424,2.817422
-444.075500,2.824427
-445.197144,2.831199
-446.350494,2.838729
-447.474701,2.845966
-448.599518,2.852906
-449.755341,2.859999
-450.879822,2.867498
-452.037048,2.875032
-453.164673,2.881733
-454.292114,2.888524
-455.450531,2.895820
-456.578430,2.903085
-457.740234,2.910716
-458.871796,2.917248
-460.032166,2.924556
-461.161835,2.931958
-462.294617,2.940013
-463.460968,2.947127
-464.594177,2.953708
-465.756958,2.961923
-466.891541,2.970296
-467.460541,2.972932
-467.460175,2.972776
-467.459900,2.972507
-467.459747,2.972610
-467.459503,2.972624
