2,Silver Crown,baseline
Steering Wheel Angle,Yaw Rate
302.970825,2.214149
301.972076,2.231710
300.973328,2.237185
299.941254,2.236282
298.942474,2.232873
297.943726,2.226322
296.911652,2.219226
295.912903,2.216378
294.914154,2.213280
293.882080,2.203398
292.883301,2.197162
291.884552,2.192760
290.852478,2.184372
289.853729,2.174177
288.854980,2.166867
287.822876,2.156815
286.824127,2.150332
285.825317,2.141170
284.793304,2.132071
283.794556,2.124938
282.795776,2.116237
281.763702,2.106802
280.764984,2.100015
279.766174,2.091215
278.734131,2.081946
277.735382,2.075022
276.736603,2.065794
275.704529,2.057707
274.705780,2.048805
273.707001,2.041984
272.674927,2.032125
271.676178,2.025329
270.677399,2.016689
269.645355,2.008280
268.646576,2.000997
267.647827,1.992189
266.615753,1.983954
265.617004,1.976010
264.584900,1.968367
263.586182,1.959309
262.587372,1.952151
261.555359,1.943080
260.556549,1.935895
259.557800,1.927429
258.525757,1.919799
257.526947,1.911701
256.528198,1.903439
255.496140,1.895710
254.497330,1.887202
253.498581,1.879990
252.466522,1.871556
251.467773,1.864358
250.468964,1.855800
249.436951,1.848146
248.438156,1.841126
247.439392,1.832059
246.407318,1.823860
245.408585,1.816693
244.409760,1.808411
243.377716,1.801119
242.378922,1.792724
241.380157,1.785764
240.348114,1.777464
239.349335,1.769803
238.350586,1.762290
237.318527,1.774780
236.319733,1.733267
235.320969,1.740622
234.288895,1.733478
233.290115,1.820513
232.291382,1.701960
231.259277,1.776112
230.260529,1.707008
229.261749,1.665130
228.229706,1.683602
227.230927,1.679497
226.232147,1.680299
225.200073,1.674568
224.201324,1.719643
223.202515,1.754062
222.170486,1.620840
221.171677,1.724911
220.172928,1.644288
219.140839,1.670786
218.142090,1.680781
217.143280,1.585617
216.111252,1.700172
215.112442,1.648967
214.113693,1.667528
213.081604,1.674777
212.082840,1.625873
211.050766,1.644308
210.052017,1.534961
209.053238,1.639561
208.021164,1.583509
207.022385,1.615146
206.023605,1.617131
204.991516,1.595141
203.992783,1.594565
202.994003,1.589842
201.961929,1.582275
200.963150,1.564717
199.964371,1.568687
198.932281,1.555746
197.933533,1.547848
196.934753,1.541412
195.902695,1.534533
194.903946,1.503513
193.905136,1.497786
192.873108,1.510707
191.874298,1.503660
190.875549,1.489659
189.843445,1.486413
188.844696,1.471259
187.845901,1.469218
186.813843,1.453471
185.815063,1.451095
184.816269,1.443247
183.784180,1.432710
182.785431,1.430979
181.786636,1.404452
180.754608,1.405730
179.755783,1.358086
178.757034,1.392157
177.724945,1.376283
176.726196,1.366775
175.727371,1.359006
174.695328,1.353987
173.696548,1.344692
172.697769,1.343799
171.665665,1.326941
170.666916,1.313415
169.668106,1.280647
168.636078,1.283498
167.637283,1.290617
166.638535,1.292058
165.606430,1.292518
164.607651,1.265091
163.608841,1.263152
162.576813,1.251393
161.578003,1.239945
160.545944,1.233284
159.547165,1.228301
158.548386,1.244624
157.516296,1.203913
156.517532,1.202394
155.518738,1.192530
154.486664,1.184089
153.487885,1.177354
152.489105,1.176048
151.457016,1.159948
150.458267,1.147298
149.459503,1.144739
148.427399,1.135323
147.428650,1.129390
146.429840,1.127177
145.397781,1.112302
144.399002,1.117910
143.400223,1.108054
142.368118,1.079725
141.369385,1.103047
140.370560,1.086391
139.338501,1.063485
138.339691,1.072384
137.340958,1.047529
136.308853,1.044271
135.310074,1.048797
134.311264,1.023087
133.279236,1.019170
132.280426,1.018516
131.281647,0.999548
130.249542,1.018158
129.250793,0.983009
128.251984,0.984950
127.219940,0.967939
126.221115,0.962449
125.222366,0.965981
124.190239,0.950805
123.191505,0.945911
122.192688,0.927021
121.160629,0.928730
120.161819,0.922732
119.163063,0.926437
118.130974,0.912390
117.132202,0.901591
116.133385,0.889885
115.101326,0.891463
114.102509,0.876293
113.103767,0.863087
112.071671,0.872891
111.072891,0.844204
110.074081,0.881874
109.042015,0.848698
108.043213,0.840580
107.011185,0.821415
106.012398,0.805663
105.013596,0.820337
103.981529,0.801115
102.982719,0.802358
101.983971,0.800887
100.951881,0.754974
99.953102,0.756751
98.954285,0.756633
97.922226,0.765529
96.923409,0.738816
95.924667,0.777254
94.892548,0.739483
93.893791,0.733427
92.894981,0.726301
91.862923,0.719582
90.864113,0.714148
89.865334,0.708864
88.833237,0.703010
87.834457,0.697458
86.835648,0.692177
85.803581,0.687066
84.804771,0.680677
83.806030,0.675083
82.773903,0.669282
81.775154,0.663433
80.776337,0.658012
79.744286,0.652496
78.745476,0.647085
77.746696,0.641787
76.714600,0.635893
75.715820,0.630328
74.717003,0.624287
73.684944,0.618536
72.686142,0.613152
71.687355,0.607700
70.655266,0.602245
69.656487,0.596906
68.657669,0.591390
67.625610,0.585423
66.626801,0.579703
65.628021,0.573973
64.595932,0.568212
63.597145,0.563014
62.598400,0.557906
61.566277,0.552085
60.567528,0.546803
59.568687,0.541021
58.536625,0.535120
57.537811,0.529287
56.505753,0.524158
55.506939,0.518602
54.508160,0.513249
53.476070,0.507791
52.477287,0.502334
51.478477,0.496793
50.446415,0.490909
49.447601,0.485103
48.448826,0.479748
47.416702,0.474158
46.417953,0.468772
45.419140,0.463611
44.387077,0.457885
43.388233,0.452030
42.389488,0.446414
41.357365,0.440381
40.358585,0.434919
39.359772,0.429759
38.327709,0.424139
37.328903,0.418669
36.330120,0.412798
35.297997,0.400511
34.299248,0.381968
33.300407,0.378350
32.268345,0.371632
31.269531,0.365049
30.270754,0.359074
29.238661,0.349909
28.239880,0.344033
27.241070,0.337746
26.209009,0.331146
25.210163,0.325066
24.211416,0.316055
23.179293,0.309375
22.180511,0.272689
21.181702,0.289901
20.149639,0.283383
19.150795,0.271514
18.152050,0.263708
17.119987,0.235873
16.121143,0.254903
15.122396,0.250367
14.090272,0.201737
13.091493,0.194267
12.092681,0.198205
11.060620,0.174946
10.061809,0.172298
9.062997,0.192908
8.030905,0.163548
7.032093,0.147981
6.000000,0.140166
5.001253,0.133198
4.002377,0.126950
2.970348,0.119415
1.971536,0.110824
0.972724,0.102386
-0.059368,0.094070
-1.058115,0.087389
-2.056992,0.134867
-3.089020,0.121064
-4.087896,0.112882
-5.086643,0.105258
-6.118735,0.098180
-7.117547,0.090635
-8.116360,0.082324
-9.148452,0.054193
-10.147263,0.014862
-11.146011,0.119378
-12.178169,0.109250
-13.176916,0.075577
-14.175728,0.047029
-15.207819,0.048912
-16.206633,0.122291
-17.205444,0.082128
-18.237535,0.122966
-19.236284,0.048540
-20.235159,0.106783
-21.267187,0.079644
-22.266064,0.067425
-23.264811,0.139768
-24.296968,0.097433
-25.295717,0.075472
-26.294464,0.114609
-27.326618,0.128713
-28.325367,0.144330
-29.324245,0.137701
-30.356274,0.152876
-31.355083,0.155473
-32.353897,0.104864
-33.385986,0.146335
-34.384800,0.194073
-35.383614,0.179324
-36.415703,0.195635
-37.414516,0.208228
-38.413265,0.221159
-39.445419,0.226314
-40.444168,0.228230
-41.443043,0.242205
-42.475071,0.258929
-43.473949,0.261776
-44.472694,0.266272
-45.504852,0.276028
-46.503601,0.277131
-47.535759,0.292583
-48.534504,0.299990
-49.533318,0.309533
-50.565411,0.313851
-51.564224,0.318832
-52.563034,0.334245
-53.595127,0.340438
-54.593937,0.346125
-55.592751,0.354502
-56.624840,0.361510
-57.623653,0.376322
-58.622467,0.378992
-59.654556,0.383897
-60.653366,0.392827
-61.652184,0.402484
-62.684273,0.415841
-63.683090,0.418183
-64.681831,0.425017
-65.713989,0.432866
-66.712738,0.447966
-67.711617,0.456031
-68.743645,0.459367
-69.742516,0.466566
-70.741264,0.480136
-71.773361,0.492103
-72.772171,0.497661
-73.770981,0.499826
-74.803070,0.513502
-75.801888,0.526500
-76.800697,0.531667
-77.832787,0.534140
-78.831604,0.547892
-79.830414,0.554473
-80.862572,0.570966
-81.861313,0.574712
-82.860130,0.579807
-83.892227,0.590151
-84.891098,0.602395
-85.889847,0.612348
-86.921997,0.614536
-87.920753,0.622143
-88.919624,0.636787
-89.951653,0.647379
-90.950531,0.652667
-91.949280,0.658227
-92.981438,0.675603
-93.980179,0.681272
-94.979065,0.682283
-96.011093,0.692201
-97.009964,0.702961
-98.008705,0.724476
-99.040863,0.722714
-100.039619,0.725515
-101.071777,0.733569
-102.070587,0.748923
-103.069389,0.758469
-104.101486,0.768409
-105.100304,0.771835
-106.099113,0.785387
-107.131271,0.794120
-108.130020,0.804289
-109.128899,0.801063
-110.160927,0.819961
-111.159798,0.826605
-112.158554,0.831134
-113.190704,0.836853
-114.189453,0.853352
-115.188255,0.861343
-116.220421,0.866089
-117.219162,0.872433
-118.218033,0.887755
-119.250061,0.908456
-120.248947,0.913122
-121.247688,0.917464
-122.279846,0.967688
-123.278656,0.938376
-124.277481,0.954080
-125.309555,0.942257
-126.308380,0.973836
-127.307190,0.970957
-128.339355,0.984434
-129.338089,0.997458
-130.336975,0.990102
-131.369003,1.011502
-132.367874,1.018296
-133.366684,1.029970
-134.398773,1.035860
-135.397583,1.049780
-136.396408,1.046088
-137.428497,1.061334
-138.427368,1.067928
-139.426117,1.081212
-140.458282,1.084988
-141.457077,1.101857
-142.455902,1.114286
-143.487991,1.123659
-144.486877,1.129034
-145.485611,1.026322
-146.517776,1.052854
-147.516525,1.063422
-148.515396,1.072487
-149.547485,1.080798
-150.546295,1.089102
-151.578400,1.097574
-152.577271,1.106839
-153.576004,1.115534
-154.608170,1.123906
-155.606918,1.132197
-156.605804,1.141304
-157.637894,1.149677
-158.636765,1.157857
-159.635513,1.167163
-160.667603,1.176044
-161.666428,1.183842
-162.665222,1.192628
-163.697372,1.201709
-164.696136,1.209963
-165.695007,1.218173
-166.727097,1.227057
-167.725922,1.236226
-168.724731,1.243783
-169.756882,1.252768
-170.755630,1.261563
-171.754501,1.270670
-172.786606,1.278221
-173.785477,1.286804
-174.784225,1.296108
-175.816376,1.304077
-176.815125,1.312634
-177.813995,1.326206
-178.846100,1.335024
-179.844971,1.343422
-180.843719,1.352165
-181.875870,1.360722
-182.874695,1.369030
-183.873505,1.376992
-184.905594,1.386878
-185.904465,1.394939
-186.903214,1.402580
-187.935364,1.412038
-188.934189,1.421515
-189.933060,1.428604
-190.965088,1.437219
-191.963959,1.446693
-192.962769,1.454843
-193.994934,1.462908
-194.993683,1.471603
-195.992554,1.481015
-197.024643,1.488918
-198.023468,1.497090
-199.022263,1.506526
-200.054428,1.514890
-201.053177,1.523246
-202.085403,1.531834
-203.084137,1.540256
-204.082886,1.548431
-205.115112,1.557377
-206.113861,1.566453
-207.112732,1.574079
-208.144836,1.582642
-209.143646,1.591738
-210.142456,1.600060
-211.174606,1.608315
-212.173355,1.617437
-213.172241,1.626004
-214.204330,1.633941
-215.203201,1.642834
-216.201950,1.651820
-217.234177,1.659335
-218.232925,1.668062
-219.231796,1.677403
-220.263885,1.685244
-221.262772,1.693468
-222.261505,1.702791
-223.293671,1.711561
-224.292496,1.719223
-225.291367,1.727793
-226.323380,1.737190
-227.322250,1.744892
-228.321075,1.753282
-229.353226,1.762790
-230.351990,1.770058
-231.350861,1.779108
-232.382965,1.787675
-233.381836,1.796352
-234.380569,1.804457
-235.412811,1.813899
-236.411545,1.821620
-237.410416,1.829849
-238.442505,1.839417
-239.441391,1.847449
-240.440125,1.855234
-241.472305,1.865402
-242.471100,1.872855
-243.469971,1.881352
-244.502060,1.890775
-245.500946,1.869627
-246.499710,1.873815
-247.531860,1.886378
-248.530670,1.893859
-249.529404,1.901998
-250.561554,1.911326
-251.560394,1.918761
-252.559265,1.926515
-253.591339,1.935477
-254.590240,1.943873
-255.622253,1.951601
-256.621124,1.960176
-257.619934,1.967932
-258.652100,1.975925
-259.650909,1.984848
-260.649780,1.992743
-261.681824,2.000220
-262.680695,2.009325
-263.679504,2.017124
-264.711670,2.024948
-265.710449,2.034040
-266.709351,2.041924
-267.741425,2.049810
-268.740295,2.058352
-269.739075,2.066716
-270.771210,2.074545
-271.770050,2.082883
-272.768921,2.091273
-273.800995,2.098743
-274.799866,2.107307
-275.798615,2.115759
-276.830841,2.123760
-277.829590,2.132142
-278.828461,2.139900
-279.860565,2.147887
-280.859436,2.156488
-281.858246,2.164751
-282.890411,2.172440
-283.889130,2.181272
-284.888000,2.188898
-285.920105,2.196805
-286.918976,2.231160
-287.917816,2.221081
-288.949951,2.237197
-289.948761,2.245832
-290.947662,2.249456
