2,Supercars Ford Mustang GT,baseline
Steering Wheel Angle,Yaw Rate
190.934753,1.539418
189.902695,1.540487
188.903946,1.526884
187.905136,1.516754
186.873108,1.507792
185.874298,1.500646
184.875549,1.491947
183.843445,1.482782
182.844696,1.472244
181.845901,1.462848
180.813843,1.453489
179.815063,1.443955
178.816269,1.434821
177.784180,1.425409
176.785431,1.416151
175.786636,1.407167
174.754608,1.398687
173.755783,1.388959
172.757034,1.379358
171.724945,1.369612
170.726196,1.360626
169.727371,1.351654
168.695328,1.341879
167.696548,1.332731
166.697769,1.323595
165.665665,1.314192
164.666916,1.305117
163.668106,1.296020
162.636078,1.286579
161.637283,1.277428
160.638535,1.268381
159.606430,1.258948
158.607651,1.249828
157.608841,1.240611
156.576813,1.231226
155.578003,1.222412
154.545944,1.212987
153.547165,1.204003
152.548386,1.194979
151.516296,1.185366
150.517532,1.176315
149.518738,1.167482
148.486664,1.158241
147.487885,1.149185
146.489105,1.140245
145.457016,1.130913
144.458267,1.121530
143.459503,1.112620
142.427399,1.103192
141.428650,1.093634
140.429840,1.084439
139.397781,1.075159
138.399002,1.067249
137.400223,1.058409
136.368118,1.048503
135.369385,1.039578
134.370560,1.031335
133.338501,1.022438
132.339691,1.012947
131.340958,1.003987
130.308853,0.994177
129.310074,0.985342
128.311264,0.976860
127.279228,0.967752
126.280426,0.958793
125.281647,0.950043
124.249550,0.941060
123.250801,0.931918
122.251991,0.922891
121.219940,0.913346
120.221115,0.904623
119.222366,0.896084
118.190239,0.887364
117.191505,0.878911
116.192688,0.870348
115.160629,0.861752
114.161819,0.853070
113.163063,0.844637
112.130974,0.835620
111.132202,0.827024
110.133385,0.818361
109.101326,0.809676
108.102509,0.801104
107.103767,0.792577
106.071671,0.784103
105.072891,0.775461
104.074081,0.767082
103.042015,0.758671
102.043213,0.750026
101.011185,0.741275
100.012398,0.733224
99.013596,0.725077
97.981529,0.716365
96.982719,0.708070
95.983971,0.699747
94.951881,0.692336
93.953102,0.685215
92.954285,0.677858
91.922226,0.670238
90.923409,0.663000
89.924667,0.655674
88.892548,0.648138
87.893791,0.640865
86.894981,0.633538
85.862923,0.625961
84.864113,0.618539
83.865334,0.611243
82.833237,0.603735
81.834457,0.596398
80.835648,0.589214
79.803581,0.581630
78.804771,0.574363
77.806030,0.566997
76.773903,0.559480
75.775154,0.552111
74.776337,0.544816
73.744286,0.537233
72.745476,0.530008
71.746696,0.522694
70.714600,0.515085
69.715820,0.507762
68.717003,0.500542
67.684944,0.493033
66.686142,0.485726
65.687355,0.478438
64.655266,0.470827
63.656487,0.463624
62.657673,0.456259
61.625610,0.448703
60.626797,0.441519
59.628021,0.434165
58.595932,0.426652
57.597145,0.419404
56.598400,0.412092
55.566277,0.404473
54.567528,0.397236
53.568687,0.389946
52.536625,0.382358
51.537811,0.375112
50.505753,0.367548
49.506939,0.360328
48.508160,0.353019
47.476070,0.345461
46.477287,0.338221
45.478477,0.330959
44.446415,0.323405
43.447601,0.316081
42.448826,0.308805
41.416702,0.301276
40.417953,0.294070
39.419140,0.286742
38.387077,0.279228
37.388233,0.271998
36.389488,0.264699
35.357365,0.257113
34.358585,0.249878
33.359772,0.242586
32.327709,0.235013
31.328901,0.227824
30.330120,0.220539
29.297997,0.212970
28.299248,0.205671
27.300406,0.198360
26.268345,0.190858
25.269531,0.183557
24.270754,0.176341
23.238661,0.168803
22.239880,0.161603
21.241070,0.154251
20.209009,0.146795
19.210163,0.139520
18.211416,0.132231
17.179293,0.124699
16.180511,0.117455
15.181702,0.110203
14.149640,0.102658
13.150796,0.095371
12.152049,0.088049
11.119988,0.080528
10.121144,0.073306
9.122396,0.065986
8.090272,0.058479
7.091493,0.051232
6.092681,0.043915
5.060620,0.036383
4.061809,0.029106
3.062997,0.021819
2.030904,0.014262
1.032093,0.007011
0.000000,0.002458
-0.998747,0.007788
-1.997624,0.015072
-3.029652,0.022563
-4.028464,0.029874
-5.027276,0.037147
-6.059368,0.044656
-7.058115,0.051984
-8.056992,0.059220
-9.089020,0.066766
-10.087896,0.074044
-11.086643,0.081346
-12.118735,0.088897
-13.117547,0.096162
-14.116360,0.103478
-15.148452,0.110973
-16.147263,0.118210
-17.146011,0.125541
-18.178169,0.133014
-19.176916,0.140293
-20.175728,0.147626
-21.207819,0.155070
-22.206633,0.162302
-23.205444,0.169609
-24.237535,0.177128
-25.236284,0.184437
-26.235159,0.191700
-27.267187,0.199243
-28.266064,0.206471
-29.264811,0.213795
-30.296968,0.221307
-31.295717,0.228573
-32.294464,0.235842
-33.326618,0.243446
-34.325367,0.250693
-35.324245,0.258021
-36.356274,0.265571
-37.355083,0.272850
-38.353897,0.280127
-39.385986,0.287624
-40.384800,0.294914
-41.383614,0.302236
-42.415703,0.309669
-43.414516,0.317070
-44.413265,0.324316
-45.445419,0.331857
-46.444168,0.339116
-47.443043,0.346334
-48.475071,0.353903
-49.473949,0.361251
-50.472694,0.368466
-51.504852,0.376001
-52.503601,0.383359
-53.535759,0.390855
-54.534504,0.398100
-55.533318,0.405395
-56.565411,0.412974
-57.564224,0.420257
-58.563034,0.427620
-59.595127,0.435077
-60.593937,0.442443
-61.592751,0.449682
-62.624840,0.457225
-63.623653,0.464541
-64.622467,0.471776
-65.654556,0.479400
-66.653366,0.486654
-67.652184,0.493961
-68.684273,0.501528
-69.683090,0.508745
-70.681831,0.516022
-71.713989,0.523614
-72.712738,0.530913
-73.711617,0.538240
-74.743645,0.545809
-75.742516,0.553111
-76.741264,0.560439
-77.773361,0.567893
-78.772171,0.575269
-79.770981,0.582546
-80.803070,0.590058
-81.801888,0.597347
-82.800697,0.604716
-83.832787,0.612307
-84.831604,0.619518
-85.830414,0.626938
-86.862572,0.634478
-87.861313,0.641807
-88.860130,0.649078
-89.892227,0.656606
-90.891098,0.663937
-91.889847,0.671196
-92.921997,0.678734
-93.920753,0.686121
-94.919624,0.693411
-95.951653,0.700841
-96.950531,0.708157
-97.949280,0.715512
-98.981438,0.724317
-99.980179,0.734250
-100.979065,0.742564
-102.011093,0.750698
-103.009964,0.759317
-104.008705,0.767855
-105.040863,0.776694
-106.039619,0.784979
-107.071777,0.793611
-108.070587,0.801390
-109.069389,0.810421
-110.101486,0.819231
-111.100304,0.827112
-112.099113,0.836114
-113.131271,0.844443
-114.130020,0.853393
-115.128899,0.861887
-116.160927,0.870958
-117.159798,0.879397
-118.158554,0.888341
-119.190704,0.897277
-120.189453,0.905801
-121.188255,0.914442
-122.220421,0.923030
-123.219162,0.932769
-124.218033,0.941539
-125.250061,0.949961
-126.248947,0.959234
-127.247688,0.967652
-128.279846,0.976607
-129.278656,0.986182
-130.277481,0.995242
-131.309555,1.004095
-132.308380,1.012447
-133.307190,1.022189
-134.339355,1.031159
-135.338089,1.040342
-136.336975,1.049072
-137.369003,1.058571
-138.367874,1.067342
-139.366684,1.076312
-140.398773,1.085507
-141.397583,1.094247
-142.396408,1.103563
-143.428497,1.112410
-144.427368,1.121019
-145.426117,1.130714
-146.458282,1.140795
-147.457077,1.150361
-148.455902,1.159364
-149.487991,1.168261
-150.486877,1.177104
-151.485611,1.186104
-152.517776,1.195738
-153.516525,1.204805
-154.515396,1.214016
-155.547485,1.223356
-156.546295,1.232248
-157.578400,1.241896
-158.577271,1.251032
-159.576004,1.260088
-160.608170,1.269470
-161.606918,1.278410
-162.605804,1.287099
-163.637894,1.296858
-164.636765,1.306455
-165.635513,1.315879
-166.667603,1.325411
-167.666428,1.334452
-168.665222,1.343490
-169.697372,1.353325
-170.696136,1.362703
-171.695007,1.371897
-172.727097,1.381445
-173.725922,1.390395
-174.724731,1.399705
-175.756882,1.409389
-176.755630,1.418756
-177.754501,1.427966
-178.786606,1.437693
-179.785477,1.447189
-180.784225,1.456573
-181.816376,1.466270
-182.815125,1.475342
-183.813995,1.484940
-184.846100,1.494924
-185.844971,1.504102
-186.843719,1.513443
-187.875870,1.523153
-188.874695,1.532670
-189.873505,1.533278
-190.905594,1.532843
