2,Supercars Holden ZB Commodore,baseline
Steering Wheel Angle,Yaw Rate
190.934753,1.539481
189.902695,1.540524
188.903946,1.526227
187.905136,1.516208
186.873108,1.507830
185.874298,1.500879
184.875549,1.492076
183.843445,1.482926
182.844696,1.472072
181.845901,1.463052
180.813843,1.453556
179.815063,1.443849
178.816269,1.434987
177.784180,1.425444
176.785431,1.416133
175.786636,1.407103
174.754608,1.397754
173.755783,1.388520
172.757034,1.379359
171.724945,1.369688
170.726196,1.360539
169.727371,1.351600
168.695328,1.342504
167.696548,1.333374
166.697769,1.323891
165.665665,1.314094
164.666916,1.305104
163.668106,1.296145
162.636078,1.286573
161.637283,1.277445
160.638535,1.268449
159.606430,1.258782
158.607651,1.249827
157.608841,1.240897
156.576813,1.231585
155.578003,1.222316
154.545944,1.212993
153.547165,1.203946
152.548386,1.194935
151.516296,1.185452
150.517532,1.176480
149.518738,1.167624
148.486664,1.158201
147.487885,1.149160
146.489105,1.140250
145.457016,1.130950
144.458267,1.121925
143.459503,1.112551
142.427399,1.102619
141.428650,1.094177
140.429840,1.084944
139.397781,1.075418
138.399002,1.066420
137.400223,1.057464
136.368118,1.048379
135.369385,1.039760
134.370560,1.031559
133.338501,1.022269
132.339691,1.012855
131.340958,1.004109
130.308853,0.994334
129.310074,0.985299
128.311264,0.976481
127.279228,0.967631
126.280426,0.958695
125.281647,0.950034
124.249550,0.941350
123.250801,0.932339
122.251991,0.924163
121.219940,0.914618
120.221115,0.905257
119.222366,0.896106
118.190239,0.887271
117.191505,0.879088
116.192688,0.870700
115.160629,0.861964
114.161819,0.853055
113.163063,0.844458
112.130974,0.835334
111.132202,0.826835
110.133385,0.818627
109.101326,0.810167
108.102509,0.801269
107.103767,0.792620
106.071671,0.784211
105.072891,0.775747
104.074081,0.766952
103.042015,0.758560
102.043213,0.751020
101.011185,0.741724
100.012398,0.733790
99.013596,0.725465
97.981529,0.716588
96.982719,0.707777
95.983971,0.700172
94.951881,0.692522
93.953102,0.685230
92.954285,0.677983
91.922226,0.670329
90.923409,0.662967
89.924667,0.655635
88.892548,0.648053
87.893791,0.640741
86.894981,0.633445
85.862923,0.625958
84.864113,0.618708
83.865334,0.611331
82.833237,0.603777
81.834457,0.596501
80.835648,0.589184
79.803581,0.581664
78.804771,0.574334
77.806030,0.567095
76.773903,0.559385
75.775154,0.552134
74.776337,0.544745
73.744286,0.537304
72.745476,0.529978
71.746696,0.522659
70.714600,0.515159
69.715820,0.507830
68.717003,0.500516
67.684944,0.492970
66.686142,0.485726
65.687355,0.478470
64.655266,0.470860
63.656487,0.463599
62.657673,0.456311
61.625610,0.448683
60.626797,0.441502
59.628021,0.434155
58.595932,0.426588
57.597145,0.419252
56.598400,0.411981
55.566277,0.404475
54.567528,0.397144
53.568687,0.389837
52.536625,0.382350
51.537811,0.375074
50.505753,0.367574
49.506939,0.360315
48.508160,0.352993
47.476070,0.345481
46.477287,0.338184
45.478477,0.330859
44.446415,0.323348
43.447601,0.316073
42.448826,0.308836
41.416702,0.301314
40.417953,0.294061
39.419140,0.286745
38.387077,0.279201
37.388233,0.271958
36.389488,0.264698
35.357365,0.257131
34.358585,0.249854
33.359772,0.242622
32.327709,0.235086
31.328901,0.227792
30.330120,0.220484
29.297997,0.212966
28.299248,0.205719
27.300406,0.198333
26.268345,0.190844
25.269531,0.183603
24.270754,0.176314
23.238661,0.168829
22.239880,0.161511
21.241070,0.154253
20.209009,0.146775
19.210163,0.139515
18.211416,0.132253
17.179293,0.124686
16.180511,0.117458
15.181702,0.110172
14.149640,0.102669
13.150796,0.095388
12.152049,0.088110
11.119988,0.080570
10.121144,0.073305
9.122396,0.066008
8.090272,0.058461
7.091493,0.051217
6.092681,0.043930
5.060620,0.036376
4.061809,0.029126
3.062997,0.021842
2.030904,0.014301
1.032093,0.007000
0.000000,0.002451
-0.998747,0.007750
-1.997624,0.015135
-3.029652,0.022634
-4.028464,0.029873
-5.027276,0.037165
-6.059368,0.044718
-7.058115,0.051976
-8.056992,0.059226
-9.089020,0.066796
-10.087896,0.074097
-11.086643,0.081344
-12.118735,0.088938
-13.117547,0.096143
-14.116360,0.103426
-15.148452,0.110955
-16.147263,0.118237
-17.146011,0.125461
-18.178169,0.133039
-19.176916,0.140326
-20.175728,0.147561
-21.207819,0.155039
-22.206633,0.162390
-23.205444,0.169619
-24.237535,0.177182
-25.236284,0.184437
-26.235159,0.191715
-27.267187,0.199210
-28.266064,0.206541
-29.264811,0.213835
-30.296968,0.221328
-31.295717,0.228628
-32.294464,0.235872
-33.326618,0.243489
-34.325367,0.250706
-35.324245,0.258020
-36.356274,0.265532
-37.355083,0.272814
-38.353897,0.280085
-39.385986,0.287641
-40.384800,0.294943
-41.383614,0.302210
-42.415703,0.309710
-43.414516,0.316979
-44.413265,0.324305
-45.445419,0.331849
-46.444168,0.339184
-47.443043,0.346367
-48.475071,0.353915
-49.473949,0.361135
-50.472694,0.368491
-51.504852,0.375990
-52.503601,0.383357
-53.535759,0.390844
-54.534504,0.398187
-55.533318,0.405440
-56.565411,0.412984
-57.564224,0.420306
-58.563034,0.427577
-59.595127,0.435087
-60.593937,0.442417
-61.592751,0.449627
-62.624840,0.457240
-63.623653,0.464493
-64.622467,0.471792
-65.654556,0.479378
-66.653366,0.486699
-67.652184,0.493962
-68.684273,0.501460
-69.683090,0.508755
-70.681831,0.516135
-71.713989,0.523618
-72.712738,0.530915
-73.711617,0.538273
-74.743645,0.545840
-75.742516,0.553092
-76.741264,0.560411
-77.773361,0.567940
-78.772171,0.575285
-79.770981,0.582512
-80.803070,0.590153
-81.801888,0.597400
-82.800697,0.604690
-83.832787,0.612261
-84.831604,0.619546
-85.830414,0.626853
-86.862572,0.634381
-87.861313,0.641682
-88.860130,0.648963
-89.892227,0.656437
-90.891098,0.663793
-91.889847,0.671201
-92.921997,0.678729
-93.920753,0.685997
-94.919624,0.693414
-95.951653,0.700876
-96.950531,0.708108
-97.949280,0.715436
-98.981438,0.725343
-99.980179,0.734391
-100.979065,0.742587
-102.011093,0.750922
-103.009964,0.758703
-104.008705,0.767618
-105.040863,0.776549
-106.039619,0.784560
-107.071777,0.793342
-108.070587,0.801697
-109.069389,0.809810
-110.101486,0.818815
-111.100304,0.826855
-112.099113,0.835899
-113.131271,0.844843
-114.130020,0.852668
-115.128899,0.861052
-116.160927,0.870579
-117.159798,0.879509
-118.158554,0.887948
-119.190704,0.896497
-120.189453,0.904915
-121.188255,0.913722
-122.220421,0.923081
-123.219162,0.931204
-124.218033,0.940352
-125.250061,0.949873
-126.248947,0.959206
-127.247688,0.967959
-128.279846,0.977038
-129.278656,0.985380
-130.277481,0.994714
-131.309555,1.004148
-132.308380,1.012279
-133.307190,1.020990
-134.339355,1.031193
-135.338089,1.040605
-136.336975,1.049318
-137.369003,1.058309
-138.367874,1.067129
-139.366684,1.075986
-140.398773,1.085178
-141.397583,1.093918
-142.396408,1.103038
-143.428497,1.112498
-144.427368,1.121820
-145.426117,1.131402
-146.458282,1.141229
-147.457077,1.150486
-148.455902,1.158984
-149.487991,1.168101
-150.486877,1.177047
-151.485611,1.186110
-152.517776,1.195703
-153.516525,1.204942
-154.515396,1.213851
-155.547485,1.223302
-156.546295,1.232508
-157.578400,1.241706
-158.577271,1.250976
-159.576004,1.260081
-160.608170,1.269523
-161.606918,1.278571
-162.605804,1.287640
-163.637894,1.297229
-164.636765,1.306472
-165.635513,1.315952
-166.667603,1.325245
-167.666428,1.334313
-168.665222,1.343604
-169.697372,1.353301
-170.696136,1.362531
-171.695007,1.371734
-172.727097,1.381428
-173.725922,1.390866
-174.724731,1.400033
-175.756882,1.409547
-176.755630,1.418907
-177.754501,1.428160
-178.786606,1.437752
-179.785477,1.447048
-180.784225,1.456377
-181.816376,1.466228
-182.815125,1.475319
-183.813995,1.484898
-184.846100,1.494866
-185.844971,1.504160
-186.843719,1.513502
-187.875870,1.523073
-188.874695,1.532410
-189.873505,1.533265
-190.905594,1.532188
