2,Supercars Ford Falcon 2014,baseline
Steering Wheel Angle,Yaw Rate
189.024994,1.507252
188.008728,1.498937
187.019974,1.492138
186.003708,1.482841
185.014938,1.468499
184.026154,1.462561
183.009888,1.450994
182.021133,1.441205
181.004852,1.431297
180.016098,1.423323
178.999817,1.414239
178.011047,1.404649
177.022247,1.395592
176.005981,1.386451
175.017227,1.377240
174.000961,1.367964
173.012192,1.358886
172.023392,1.349896
171.007111,1.340792
170.018356,1.331873
169.002075,1.322544
168.013321,1.313294
167.024506,1.304397
166.008270,1.295140
165.019485,1.286352
164.003220,1.277344
163.014450,1.268389
162.025650,1.259237
161.009415,1.250283
160.020615,1.241938
159.004333,1.232913
158.015564,1.223140
157.026764,1.214100
156.010544,1.205039
155.021729,1.195973
154.005478,1.187004
153.016708,1.178062
152.000443,1.168859
151.011673,1.159850
150.022858,1.151021
149.006622,1.142209
148.017822,1.133209
147.001556,1.124067
146.012772,1.115414
145.023972,1.106839
144.007736,1.097108
143.018936,1.088297
142.002655,1.079197
141.013901,1.070657
140.025085,1.062125
139.008850,1.052439
138.020050,1.043893
137.003769,1.034950
136.014999,1.026577
135.026199,1.017389
134.009964,1.008398
133.021164,0.999861
132.004913,0.990467
131.016113,0.981673
130.027283,0.973748
129.011078,0.964493
128.022263,0.955912
127.006020,0.946930
126.017204,0.938041
125.000938,0.929167
124.012169,0.920939
123.023369,0.913082
122.007118,0.904215
121.018311,0.894283
120.002029,0.885249
119.013283,0.877151
118.024460,0.868850
117.008224,0.859869
116.019402,0.851594
115.003166,0.843366
114.014351,0.835155
113.025566,0.826201
112.009323,0.817616
111.020508,0.809363
110.004265,0.800882
109.015457,0.792598
108.026642,0.784259
107.010399,0.776009
106.021584,0.767951
105.005371,0.759252
104.016556,0.750490
103.027771,0.742684
102.011497,0.733973
101.022690,0.726765
100.006439,0.717804
99.017632,0.709983
98.001389,0.700985
97.012573,0.692882
96.023758,0.684925
95.007515,0.675760
94.018700,0.668912
93.002457,0.661692
92.013649,0.654529
91.024887,0.647418
90.008591,0.640173
89.019775,0.633027
88.003563,0.625787
87.014717,0.618636
86.025963,0.611556
85.009674,0.604161
84.020859,0.596983
83.004631,0.589734
82.015800,0.582622
81.027039,0.575607
80.010742,0.568234
79.021935,0.561233
78.005684,0.553818
77.016876,0.546784
76.000633,0.539365
75.011818,0.532284
74.023056,0.525273
73.006760,0.517910
72.017944,0.510826
71.001701,0.503512
70.012894,0.496382
69.024109,0.489327
68.007835,0.481999
67.018997,0.475014
66.002754,0.467680
65.013939,0.460512
64.025177,0.453396
63.008881,0.446201
62.020069,0.439069
61.003826,0.431855
60.015011,0.424735
59.026226,0.417709
58.009926,0.410378
57.021172,0.403262
56.004875,0.395960
55.016060,0.388891
54.027275,0.381829
53.011005,0.374576
52.022217,0.367506
51.005924,0.360233
50.017109,0.353128
49.000866,0.345951
48.012054,0.338827
47.023270,0.331806
46.006969,0.324513
45.018211,0.317453
44.001915,0.310280
43.013073,0.303187
42.024315,0.296189
41.008018,0.288865
40.019230,0.281797
39.002964,0.274594
38.014122,0.267507
37.025364,0.260520
36.009068,0.253263
35.020279,0.246226
34.003983,0.238960
33.015167,0.231907
32.026382,0.224981
31.010088,0.217627
30.021326,0.210668
29.005032,0.203431
28.016247,0.196375
27.027433,0.189384
26.011137,0.182188
25.022348,0.175226
24.006052,0.168123
23.017294,0.161135
22.000998,0.153945
21.012157,0.146948
20.023371,0.140044
19.007101,0.132896
18.018314,0.125919
17.002018,0.118785
16.013233,0.111781
15.024419,0.104846
14.008123,0.097729
13.019336,0.090734
12.003040,0.083532
11.014254,0.076597
10.025441,0.069630
9.009144,0.062515
8.020358,0.055512
7.004062,0.048296
6.015275,0.041353
5.026462,0.034349
4.010166,0.027226
3.021353,0.020273
2.005083,0.013091
1.016323,0.006140
0.000000,0.003104
-0.988760,0.007982
-1.977626,0.014949
-2.993896,0.022113
-3.982709,0.029077
-4.998979,0.036321
-5.987792,0.043234
-6.976604,0.050194
-7.992875,0.057400
-8.981688,0.064335
-9.997957,0.071497
-10.986771,0.078480
-11.975583,0.085465
-12.991853,0.092605
-13.980665,0.099534
-14.996989,0.106682
-15.985749,0.113624
-16.974613,0.120565
-17.990831,0.127800
-18.979698,0.134759
-19.995966,0.141935
-20.984779,0.148837
-21.973593,0.155765
-22.989862,0.162965
-23.978676,0.169928
-24.994999,0.177052
-25.983759,0.184060
-27.000082,0.191194
-27.988842,0.198232
-28.977654,0.205240
-29.993923,0.212470
-30.982737,0.219471
-31.999060,0.226759
-32.987873,0.233707
-33.976685,0.240761
-34.992954,0.248019
-35.981770,0.255079
-36.998093,0.262286
-37.986855,0.269337
-38.975719,0.276396
-39.991932,0.283619
-40.980801,0.290631
-41.997017,0.297912
-42.985882,0.304993
-43.974697,0.311987
-44.990967,0.319260
-45.979778,0.326285
-46.996048,0.333568
-47.984913,0.340624
-48.973728,0.347678
-49.989998,0.354898
-50.978813,0.361998
-51.995083,0.369285
-52.983894,0.376260
-54.000217,0.383605
-54.989029,0.390663
-55.977844,0.397767
-56.994110,0.404983
-57.982929,0.412052
-58.999199,0.419338
-59.988010,0.426440
-60.976871,0.433484
-61.993145,0.440780
-62.981956,0.447877
-63.998226,0.455124
-64.987038,0.462200
-65.975906,0.469309
-66.992180,0.476616
-67.980995,0.483735
-68.997253,0.491048
-69.986069,0.498092
-70.974884,0.505178
-71.991211,0.512460
-72.980019,0.519545
-73.996292,0.526887
-74.985161,0.533945
-75.973915,0.541072
-76.990234,0.548328
-77.979050,0.555434
-78.995323,0.562744
-79.984192,0.569893
-81.000404,0.577220
-81.989273,0.584262
-82.978142,0.591321
-83.994354,0.598681
-84.983215,0.605773
-85.999489,0.613065
-86.988304,0.620145
-87.977112,0.627342
-88.993439,0.634591
-89.982254,0.641688
-90.998520,0.648946
-91.987381,0.656041
-92.976151,0.663133
-93.992470,0.670464
-94.981339,0.677623
-95.997551,0.684933
-96.986420,0.692088
-97.975182,0.699149
-98.991501,0.709470
-99.980316,0.718233
-100.996635,0.726255
-101.985451,0.734866
-103.001717,0.742796
-103.990585,0.751172
-104.979347,0.759093
-105.995674,0.768013
-106.984535,0.775941
-108.000801,0.784243
-108.989616,0.792490
-109.978432,0.800507
-110.994759,0.808839
-111.983620,0.817848
-112.999840,0.826039
-113.988701,0.833906
-114.977516,0.842915
-115.993790,0.851553
-116.982597,0.859290
-117.998917,0.868045
-118.987793,0.876048
-119.976540,0.885475
-120.992874,0.894319
-121.981682,0.902832
-122.998009,0.911119
-123.986816,0.919272
-124.975624,0.928796
-125.991959,0.937837
-126.980713,0.944946
-127.997040,0.954244
-128.985855,0.963539
-130.002182,0.973220
-130.991043,0.981455
-131.979797,0.989452
-132.996124,0.998783
-133.984924,1.007335
-135.001266,1.015969
-135.990128,1.025375
-136.978897,1.033252
-137.995209,1.042335
-138.984009,1.051905
-140.000351,1.060786
-140.989212,1.069725
-141.977966,1.078706
-142.994293,1.088028
-143.983093,1.096468
-144.999435,1.105566
-145.988190,1.113726
-146.977051,1.122483
-147.993378,1.133356
-148.982193,1.142347
-149.998520,1.150606
-150.987274,1.159685
-151.976135,1.168034
-152.992462,1.177242
-153.981277,1.187202
-154.997604,1.196497
-155.986404,1.205232
-157.002731,1.214334
-157.991592,1.223622
-158.980362,1.232388
-159.996674,1.241331
-160.985504,1.249699
-162.001816,1.259841
-162.990631,1.269022
-163.979446,1.278094
-164.995819,1.287377
-165.984589,1.296333
-167.000900,1.305762
-167.989716,1.315123
-168.978577,1.323924
-169.994904,1.333236
-170.983719,1.342678
-172.000046,1.351770
-172.988800,1.360590
-173.977661,1.369586
-174.993927,1.379379
-175.982803,1.388327
-176.999130,1.397608
-177.987946,1.407049
-178.976807,1.416366
-179.993011,1.425456
-180.981888,1.434414
-181.998260,1.444349
-182.987030,1.453649
-184.003342,1.463221
-184.992157,1.472175
-185.981033,1.481440
-186.997345,1.490826
-187.986160,1.499947
-189.002487,1.509429
