2,Super Formula SF23 - Honda,baseline
Steering Wheel Angle,Yaw Rate
253.557785,1.566172
252.525742,1.569318
251.526947,1.568140
250.528183,1.561963
249.496140,1.555309
248.497330,1.549170
247.498581,1.541778
246.466522,1.531673
245.467773,1.526972
244.468964,1.520814
243.436951,1.514444
242.438156,1.509066
241.439392,1.503041
240.407318,1.496538
239.408585,1.490212
238.409760,1.483483
237.377716,1.476697
236.378922,1.470575
235.380157,1.464391
234.348114,1.458076
233.349335,1.451329
232.350586,1.444724
231.318527,1.438348
230.319733,1.432078
229.320969,1.425523
228.288895,1.419253
227.290115,1.412527
226.291382,1.406236
225.259277,1.399808
224.260529,1.393560
223.261749,1.387168
222.229706,1.381095
221.230927,1.374284
220.232147,1.368071
219.200073,1.361719
218.201324,1.354825
217.202515,1.348905
216.170486,1.342213
215.171677,1.336107
214.172928,1.329741
213.140839,1.323326
212.142090,1.316764
211.143280,1.310290
210.111252,1.304000
209.112442,1.297947
208.113693,1.291386
207.081604,1.284704
206.082840,1.278304
205.050766,1.272043
204.052017,1.265831
203.053238,1.259310
202.021164,1.252803
201.022385,1.246782
200.023605,1.240110
198.991516,1.233855
197.992783,1.227670
196.994003,1.221210
195.961929,1.214585
194.963150,1.208347
193.964371,1.201944
192.932281,1.195516
191.933533,1.189574
190.934753,1.182930
189.902695,1.176495
188.903946,1.170513
187.905136,1.163805
186.873108,1.157331
185.874298,1.151235
184.875549,1.145012
183.843445,1.138636
182.844696,1.132553
181.845901,1.125889
180.813843,1.119551
179.815063,1.113235
178.816269,1.106917
177.784180,1.100370
176.785431,1.093876
175.786636,1.087776
174.754608,1.081393
173.755783,1.075426
172.757034,1.069108
171.724945,1.062250
170.726196,1.055913
169.727371,1.049862
168.695328,1.043385
167.696548,1.037312
166.697769,1.030956
165.665665,1.024434
164.666916,1.018092
163.668106,1.012188
162.636078,1.005378
161.637283,0.999144
160.638535,0.992920
159.606430,0.986631
158.607651,0.980143
157.608841,0.973899
156.576813,0.967434
155.578003,0.961294
154.545944,0.954903
153.547165,0.948616
152.548386,0.942458
151.516296,0.935998
150.517532,0.929751
149.518738,0.923553
148.486664,0.917153
147.487885,0.910850
146.489105,0.904706
145.457016,0.898261
144.458267,0.891728
143.459503,0.885604
142.427399,0.879231
141.428650,0.873026
140.429840,0.866925
139.397781,0.860337
138.399002,0.854252
137.400223,0.848049
136.368118,0.841552
135.369385,0.835330
134.370560,0.829333
133.338501,0.822647
132.339691,0.816440
131.340958,0.810187
130.308853,0.803887
129.310074,0.797547
128.311264,0.791278
127.279228,0.784739
126.280426,0.778544
125.281647,0.772498
124.249550,0.766135
123.250801,0.759992
122.251991,0.753663
121.219940,0.747352
120.221115,0.741172
119.222366,0.734832
118.190239,0.728580
117.191505,0.722337
116.192688,0.716167
115.160629,0.709712
114.161819,0.703291
113.163063,0.697067
112.130974,0.691061
111.132202,0.684517
110.133385,0.678282
109.101326,0.672020
108.102509,0.666018
107.103767,0.659770
106.071671,0.653100
105.072891,0.647098
104.074081,0.640871
103.042015,0.634469
102.043213,0.628280
101.011185,0.621960
100.012398,0.615768
99.013596,0.609544
97.981529,0.603133
96.982719,0.596883
95.983971,0.590664
94.951881,0.584415
93.953102,0.578088
92.954285,0.571968
91.922226,0.565601
90.923409,0.559453
89.924667,0.553232
88.892548,0.546632
87.893791,0.540413
86.894981,0.534346
85.862923,0.528175
84.864113,0.521870
83.865334,0.515552
82.833237,0.509196
81.834457,0.503147
80.835648,0.496912
79.803581,0.490486
78.804771,0.484493
77.806030,0.478268
76.773903,0.471683
75.775154,0.465489
74.776337,0.459321
73.744286,0.452996
72.745476,0.446947
71.746696,0.440725
70.714600,0.434313
69.715820,0.428023
68.717003,0.421971
67.684944,0.415623
66.686142,0.409438
65.687355,0.403181
64.655266,0.396907
63.656487,0.390750
62.657673,0.384564
61.625610,0.378145
60.626797,0.371954
59.628021,0.365801
58.595932,0.359498
57.597145,0.353241
56.598400,0.347054
55.566277,0.340680
54.567528,0.334553
53.568687,0.328404
52.536625,0.322024
51.537811,0.315919
50.505753,0.309495
49.506939,0.303252
48.508160,0.297065
47.476070,0.290682
46.477287,0.284684
45.478477,0.278438
44.446415,0.272120
43.447601,0.265870
42.448826,0.259753
41.416702,0.253234
40.417953,0.247303
39.419140,0.241025
38.387077,0.234780
37.388233,0.228570
36.389488,0.222339
35.357365,0.215996
34.358585,0.209879
33.359772,0.203794
32.327709,0.197457
31.328901,0.191163
30.330120,0.184991
29.297997,0.178592
28.299248,0.172376
27.300406,0.166349
26.268345,0.159963
25.269531,0.153838
24.270754,0.147715
23.238661,0.141295
22.239880,0.134969
21.241070,0.128853
20.209009,0.122521
19.210163,0.116374
18.211416,0.110074
17.179293,0.103869
16.180511,0.097697
15.181702,0.091586
14.149640,0.085111
13.150796,0.078927
12.152049,0.072767
11.119988,0.066597
10.121144,0.060264
9.122396,0.054154
8.090272,0.047767
7.091493,0.041590
6.092681,0.035539
5.060620,0.029155
4.061809,0.022953
3.062997,0.016871
2.030904,0.010657
1.032093,0.005341
0.000000,0.000561
-0.998747,0.005013
-1.997624,0.010237
-3.029652,0.016641
-4.028464,0.022837
-5.027276,0.028937
-6.059368,0.035153
-7.058115,0.041404
-8.056992,0.047763
-9.089020,0.054081
-10.087896,0.060370
-11.086643,0.066244
-12.118735,0.072766
-13.117547,0.078922
-14.116360,0.085076
-15.148452,0.091340
-16.147263,0.097582
-17.146011,0.103732
-18.178169,0.110138
-19.176916,0.116324
-20.175728,0.122305
-21.207819,0.128746
-22.206633,0.134963
-23.205444,0.141055
-24.237535,0.147389
-25.236284,0.153526
-26.235159,0.159858
-27.267187,0.166213
-28.266064,0.172313
-29.264811,0.178661
-30.296968,0.184894
-31.295717,0.190919
-32.294464,0.197089
-33.326618,0.203499
-34.325367,0.209579
-35.324245,0.215728
-36.356274,0.222141
-37.355083,0.228387
-38.353897,0.234627
-39.385986,0.240954
-40.384800,0.246974
-41.383614,0.253084
-42.415703,0.259631
-43.414516,0.265784
-44.413265,0.271991
-45.445419,0.278215
-46.444168,0.284583
-47.443043,0.290580
-48.475071,0.296971
-49.473949,0.303184
-50.472694,0.309379
-51.504852,0.315765
-52.503601,0.321825
-53.535759,0.328272
-54.534504,0.334396
-55.533318,0.340610
-56.565411,0.347007
-57.564224,0.353069
-58.563034,0.359260
-59.595127,0.365672
-60.593937,0.371907
-61.592751,0.377842
-62.624840,0.384214
-63.623653,0.390597
-64.622467,0.396696
-65.654556,0.403204
-66.653366,0.409286
-67.652184,0.415502
-68.684273,0.421753
-69.683090,0.427978
-70.681831,0.434197
-71.713989,0.440522
-72.712738,0.446747
-73.711617,0.452871
-74.743645,0.459277
-75.742516,0.465505
-76.741264,0.471641
-77.773361,0.477886
-78.772171,0.484201
-79.770981,0.490555
-80.803070,0.496831
-81.801888,0.502928
-82.800697,0.509113
-83.832787,0.515625
-84.831604,0.521665
-85.830414,0.527958
-86.862572,0.534380
-87.861313,0.540430
-88.860130,0.546635
-89.892227,0.553061
-90.891098,0.559202
-91.889847,0.565345
-92.921997,0.571847
-93.920753,0.577952
-94.919624,0.584138
-95.951653,0.590383
-96.950531,0.596620
-97.949280,0.602935
-98.981438,0.609276
-99.980179,0.615443
-100.979065,0.621660
-102.011093,0.628217
-103.009964,0.634432
-104.008705,0.640497
-105.040863,0.647006
-106.039619,0.653362
-107.071777,0.659636
-108.070587,0.665895
-109.069389,0.671967
-110.101486,0.678422
-111.100304,0.684537
-112.099113,0.690948
-113.131271,0.697260
-114.130020,0.703285
-115.128899,0.709661
-116.160927,0.716026
-117.159798,0.722055
-118.158554,0.728237
-119.190704,0.734918
-120.189453,0.741032
-121.188255,0.747294
-122.220421,0.753678
-123.219162,0.759925
-124.218033,0.766208
-125.250061,0.772629
-126.248947,0.778964
-127.247688,0.784979
-128.279846,0.791248
-129.278656,0.797245
-130.277481,0.803860
-131.309555,0.810223
-132.308380,0.816343
-133.307190,0.822652
-134.339355,0.829185
-135.338089,0.835173
-136.336975,0.841590
-137.369003,0.847903
-138.367874,0.854201
-139.366684,0.860448
-140.398773,0.866923
-141.397583,0.872923
-142.396408,0.879385
-143.428497,0.885855
-144.427368,0.892035
-145.426117,0.898230
-146.458282,0.904410
-147.457077,0.910703
-148.455902,0.917162
-149.487991,0.923511
-150.486877,0.929657
-151.485611,0.935775
-152.517776,0.942292
-153.516525,0.948702
-154.515396,0.954989
-155.547485,0.961464
-156.546295,0.967576
-157.578400,0.974254
-158.577271,0.980374
-159.576004,0.986439
-160.608170,0.992998
-161.606918,0.999408
-162.605804,1.005627
-163.637894,1.011899
-164.636765,1.018195
-165.635513,1.024702
-166.667603,1.031136
-167.666428,1.037305
-168.665222,1.043344
-169.697372,1.049883
-170.696136,1.056132
-171.695007,1.062438
-172.727097,1.068720
-173.725922,1.075112
-174.724731,1.081154
-175.756882,1.087940
-176.755630,1.094113
-177.754501,1.100268
-178.786606,1.107058
-179.785477,1.112902
-180.784225,1.119323
-181.816376,1.125740
-182.815125,1.132258
-183.813995,1.138442
-184.846100,1.144888
-185.844971,1.151267
-186.843719,1.157515
-187.875870,1.163801
-188.874695,1.170201
-189.873505,1.176536
-190.905594,1.183129
-191.904465,1.189476
-192.903214,1.195689
-193.935364,1.202082
-194.934189,1.208363
-195.933060,1.214767
-196.965088,1.221477
-197.963959,1.227673
-198.962769,1.233838
-199.994934,1.240056
-200.993683,1.246773
-201.992554,1.253048
-203.024643,1.259440
-204.023468,1.265981
-205.022263,1.272022
-206.054428,1.278567
-207.053177,1.284996
-208.085403,1.291450
-209.084137,1.297568
-210.082886,1.304315
-211.115112,1.310604
-212.113861,1.316666
-213.112732,1.323047
-214.144836,1.329716
-215.143646,1.336080
-216.142456,1.342271
-217.174606,1.348788
-218.173355,1.355032
-219.172241,1.361281
-220.204330,1.367805
-221.203201,1.374530
-222.201950,1.380632
-223.234177,1.387125
-224.232925,1.393379
-225.231796,1.400002
-226.263885,1.406363
-227.262772,1.412561
-228.261505,1.419410
-229.293671,1.425837
-230.292496,1.431878
-231.291367,1.438635
-232.323380,1.444855
-233.322250,1.450986
-234.321075,1.457980
-235.353226,1.464324
-236.351990,1.470498
-237.350861,1.476790
-238.382965,1.483483
-239.381836,1.489610
-240.380569,1.496071
-241.412811,1.503098
-242.411545,1.509323
-243.410416,1.515349
-244.442505,1.522139
-245.441391,1.528633
-246.440125,1.534768
-247.472305,1.541347
-248.471100,1.547697
-249.469971,1.554448
-250.502060,1.561186
-251.500946,1.567456
-252.499710,1.570060
-253.531860,1.570177
