2,Volkswagen Beetle GRC Lite,baseline
Steering Wheel Angle,Yaw Rate
217.013016,1.333800
216.024261,1.328801
215.007996,1.325089
214.019226,1.319922
213.002960,1.313512
212.014175,1.307366
211.025421,1.301293
210.009140,1.294416
209.020386,1.287628
208.004135,1.280394
207.015366,1.273157
206.026566,1.265775
205.010300,1.258236
204.021530,1.250545
203.005295,1.242927
202.016510,1.235645
201.000275,1.228572
200.011475,1.221904
199.022705,1.215410
198.006454,1.208784
197.017670,1.202417
196.001419,1.196063
195.012619,1.189828
194.023849,1.183845
193.007599,1.177591
192.018814,1.171461
191.002563,1.164882
190.013794,1.158360
189.024994,1.151536
188.008728,1.144538
187.019974,1.137457
186.003708,1.130291
185.014938,1.123343
184.026154,1.116419
183.009888,1.109491
182.021133,1.102906
181.004852,1.096288
180.016098,1.089831
178.999817,1.083027
178.011047,1.076280
177.022247,1.069399
176.005981,1.062500
175.017227,1.055931
174.000961,1.049092
173.012192,1.042418
172.023392,1.035572
171.007111,1.028728
170.018356,1.022123
169.002075,1.015082
168.013321,1.008420
167.024506,1.001826
166.008270,0.994955
165.019485,0.988198
164.003220,0.981279
163.014450,0.974667
162.025650,0.967948
161.009415,0.961140
160.020615,0.954676
159.004333,0.947612
158.015564,0.941070
157.026764,0.934326
156.010544,0.927570
155.021729,0.921027
154.005478,0.914028
153.016708,0.907435
152.000443,0.900760
151.011673,0.893958
150.022858,0.887413
149.006622,0.880521
148.017822,0.873887
147.001556,0.866989
146.012772,0.860478
145.023972,0.853794
144.007736,0.846939
143.018936,0.840411
142.002655,0.833585
141.013901,0.826910
140.025085,0.820084
139.008850,0.813477
138.020050,0.806731
137.003769,0.799910
136.014999,0.793256
135.026199,0.786625
134.009964,0.779808
133.021164,0.773288
132.004913,0.766485
131.016113,0.759676
130.027283,0.753020
129.011078,0.746175
128.022263,0.739484
127.006020,0.732669
126.017204,0.726077
125.000938,0.719080
124.012169,0.712385
123.023369,0.705762
122.007118,0.698788
121.018311,0.692215
120.002029,0.685362
119.013283,0.678546
118.024460,0.671912
117.008224,0.665104
116.019402,0.658283
115.003166,0.651480
114.014351,0.644504
113.025566,0.638123
112.009323,0.631010
111.020508,0.624757
110.004265,0.617492
109.015457,0.610840
108.026642,0.604416
107.010399,0.597179
106.021584,0.590522
105.005371,0.583426
104.016556,0.577035
103.027771,0.570418
102.011497,0.563194
101.022690,0.556607
100.006439,0.549389
99.017632,0.543188
98.001389,0.536190
97.012573,0.530695
96.023758,0.523001
95.007515,0.516235
94.018700,0.511443
93.002457,0.506352
92.013649,0.502527
91.024887,0.492227
90.008591,0.492294
89.019775,0.489607
88.003563,0.476311
87.014717,0.478193
86.025963,0.463169
85.009674,0.456710
84.020859,0.453033
83.004631,0.445444
82.015800,0.439842
81.027039,0.434079
80.010742,0.428137
79.021935,0.422548
78.005684,0.416623
77.016876,0.410701
76.000633,0.404250
75.011818,0.398022
74.023056,0.392340
73.006760,0.386546
72.017944,0.380468
71.001701,0.374029
70.012894,0.368391
69.024109,0.362209
68.007835,0.355835
67.018997,0.349835
66.002754,0.344046
65.013939,0.337787
64.025177,0.331615
63.008881,0.325753
62.020069,0.319467
61.003826,0.312954
60.015011,0.306961
59.026226,0.300821
58.009926,0.294659
57.021172,0.288590
56.004875,0.282269
55.016060,0.275981
54.027275,0.269814
53.011005,0.263415
52.022217,0.257454
51.005924,0.250877
50.017109,0.244492
49.000866,0.238273
48.012054,0.231803
47.023270,0.225867
46.006969,0.219295
45.018211,0.213012
44.001915,0.206363
43.013073,0.200261
42.024315,0.193810
41.008018,0.187201
40.019230,0.180944
39.002964,0.174557
38.014122,0.168509
37.025364,0.162473
36.009068,0.156254
35.020279,0.150677
34.003983,0.145991
33.015167,0.141713
32.026382,0.137159
31.010088,0.132528
30.021326,0.128017
29.005032,0.123386
28.016247,0.118898
27.027433,0.114456
26.011137,0.109728
25.022348,0.105217
24.006052,0.100633
23.017294,0.096170
22.000998,0.091465
21.012157,0.086985
20.023371,0.082447
19.007101,0.077884
18.018314,0.073298
17.002018,0.068681
16.013233,0.064177
15.024419,0.059631
14.008123,0.055138
13.019336,0.050473
12.003040,0.045862
11.014254,0.041228
10.025441,0.036715
9.009144,0.032062
8.020358,0.027464
7.004062,0.022644
6.015275,0.018036
5.026462,0.015002
4.010166,0.012053
3.021353,0.009326
2.005083,0.006520
1.016323,0.003770
0.000000,0.001659
-0.988760,0.001871
-1.977626,0.004558
-2.993896,0.007408
-3.982709,0.010127
-4.998979,0.012930
-5.987792,0.016082
-6.976604,0.020830
-7.992875,0.025431
-8.981688,0.030162
-9.997957,0.034979
-10.986771,0.039668
-11.975583,0.044206
-12.991853,0.048986
-13.980665,0.053714
-14.996989,0.058574
-15.985749,0.063180
-16.974613,0.067797
-17.990831,0.072641
-18.979698,0.077318
-19.995966,0.082136
-20.984779,0.086722
-21.973593,0.091446
-22.989862,0.096349
-23.978676,0.101090
-24.994999,0.105787
-25.983759,0.110553
-27.000082,0.115278
-27.988842,0.119963
-28.977654,0.124642
-29.993923,0.129355
-30.982737,0.134098
-31.999060,0.138835
-32.987873,0.143666
-33.976685,0.148722
-34.992954,0.155679
-35.981770,0.162050
-36.998093,0.168569
-37.986855,0.174992
-38.975719,0.181645
-39.991932,0.188137
-40.980801,0.194723
-41.997017,0.201289
-42.985882,0.207888
-43.974697,0.214120
-44.990967,0.220908
-45.979778,0.226977
-46.996048,0.233692
-47.984913,0.240102
-48.973728,0.246485
-49.989998,0.252894
-50.978813,0.258972
-51.995083,0.265540
-52.983894,0.272092
-54.000217,0.278629
-54.989029,0.284873
-55.977844,0.291098
-56.994110,0.297442
-57.982929,0.303708
-58.999199,0.310239
-59.988010,0.316211
-60.976871,0.322406
-61.993145,0.328892
-62.981956,0.334993
-63.998226,0.341113
-64.987038,0.347716
-65.975906,0.353681
-66.992180,0.360059
-67.980995,0.366204
-68.997253,0.372473
-69.986069,0.378499
-70.974884,0.384546
-71.991211,0.390909
-72.980019,0.396922
-73.996292,0.403125
-74.985161,0.409022
-75.973915,0.415301
-76.990234,0.421472
-77.979050,0.427515
-78.995323,0.433436
-79.984192,0.439387
-81.000404,0.445611
-81.989273,0.451448
-82.978142,0.457670
-83.994354,0.463716
-84.983215,0.469649
-85.999489,0.475670
-86.988304,0.481634
-87.977112,0.487551
-88.993439,0.493433
-89.982254,0.499288
-90.998520,0.505554
-91.987381,0.511468
-92.976151,0.517446
-93.992470,0.523322
-94.981339,0.529294
-95.997551,0.535056
-96.986420,0.540787
-97.975182,0.546677
-98.991501,0.552646
-99.980316,0.558245
-100.996635,0.564371
-101.985451,0.569978
-103.001717,0.575957
-103.990585,0.581576
-104.979347,0.587464
-105.995674,0.593270
-106.984535,0.599006
-108.000801,0.604869
-108.989616,0.610318
-109.978432,0.616103
-110.994759,0.622019
-111.983620,0.627341
-112.999840,0.633496
-113.988701,0.639005
-114.977516,0.644741
-115.993790,0.650152
-116.982597,0.655961
-117.998917,0.661676
-118.987793,0.667178
-119.976540,0.672696
-120.992874,0.678333
-121.981682,0.684171
-122.998009,0.693229
-123.986816,0.700107
-124.975624,0.706450
-125.991959,0.713185
-126.980713,0.719626
-127.997040,0.726231
-128.985855,0.732716
-130.002182,0.739499
-130.991043,0.745668
-131.979797,0.752080
-132.996124,0.758891
-133.984924,0.765282
-135.001266,0.771862
-135.990128,0.778095
-136.978897,0.784752
-137.995209,0.791513
-138.984009,0.797957
-140.000351,0.804495
-140.989212,0.810954
-141.977966,0.818623
-142.994293,0.825352
-143.983093,0.832462
-144.999435,0.838584
-145.988190,0.845144
-146.977051,0.851796
-147.993378,0.858813
-148.982193,0.865332
-149.998520,0.872235
-150.987274,0.879224
-151.976135,0.885761
-152.992462,0.892624
-153.981277,0.899238
-154.997604,0.905718
-155.986404,0.912679
-157.002731,0.919651
-157.991592,0.926312
-158.980362,0.932457
-159.996674,0.939687
-160.985504,0.946388
-162.001816,0.953417
-162.990631,0.959774
-163.979446,0.966324
-164.995819,0.972717
-165.984589,0.979082
-167.000900,0.985836
-167.989716,0.992227
-168.978577,0.998673
-169.994904,1.005453
-170.983719,1.012013
-172.000046,1.019033
-172.988800,1.025802
-173.977661,1.032877
-174.993927,1.039724
-175.982803,1.045802
-176.999130,1.052649
-177.987946,1.059623
-178.976807,1.066667
-179.993011,1.073001
-180.981888,1.079516
-181.998260,1.085857
-182.987030,1.092714
-184.003342,1.099626
-184.992157,1.106151
-185.981033,1.112981
-186.997345,1.119750
-187.986160,1.126790
-189.002487,1.133188
-189.991287,1.140647
-190.980164,1.146865
-191.996368,1.154540
-192.985306,1.160410
-194.001617,1.167055
-194.990387,1.174858
-195.979248,1.181078
-196.995514,1.188223
-197.984390,1.195896
-199.000702,1.202675
-199.989532,1.208899
-200.978394,1.215473
-201.994644,1.222126
-202.983521,1.229073
-203.999786,1.235415
-204.988647,1.241822
-206.004990,1.249546
-206.993790,1.254975
-207.982666,1.261064
-208.998932,1.268003
-209.987793,1.274934
-211.004120,1.283191
-211.992920,1.288419
-212.981796,1.294464
-213.998062,1.300342
-214.986923,1.307240
-216.003265,1.315041
-216.992065,1.321986
