2,VW Jetta TDI Cup,baseline
Steering Wheel Angle,Yaw Rate
489.896606,3.126663
488.897858,3.125654
487.899139,3.124156
486.867065,3.122541
485.868317,3.122703
484.869598,3.118409
483.837555,3.111045
482.838837,3.104467
481.840027,3.098793
480.808014,3.091055
479.809296,3.083713
478.810547,3.076778
477.778534,3.069836
476.779755,3.062467
475.781006,3.056051
474.748993,3.048997
473.750244,3.042249
472.751526,3.035687
471.719452,3.028744
470.720764,3.021887
469.721985,3.015180
468.689972,3.008104
467.691223,3.001451
466.659149,2.994524
465.660400,2.987578
464.661682,2.980905
463.629669,2.973750
462.630920,2.967324
461.632141,2.960355
460.600128,2.953366
459.601379,2.946754
458.602631,2.939851
457.570587,2.932788
456.571869,2.926155
455.573090,2.919323
454.541046,2.912287
453.542328,2.905735
452.543579,2.898760
451.511505,2.891775
450.512787,2.885267
449.514038,2.878260
448.481995,2.871248
447.483276,2.864840
446.484497,2.857605
445.452484,2.850751
444.453705,2.844252
443.454987,2.837270
442.422974,2.830468
441.424194,2.824145
440.425476,2.816914
439.393402,2.810120
438.394653,2.803785
437.395905,2.796590
436.363892,2.789779
435.365143,2.783401
434.366364,2.776274
433.334320,2.769794
432.335571,2.762978
431.336823,2.756040
430.304779,2.749372
429.306061,2.743001
428.307312,2.736357
427.275269,2.729565
426.276489,2.722893
425.277771,2.716165
424.245728,2.709328
423.246979,2.702624
422.248230,2.695981
421.216156,2.688926
420.217407,2.682358
419.218658,2.675857
418.186646,2.668932
417.187897,2.662256
416.189148,2.655685
415.157104,2.648742
414.158325,2.642223
413.126312,2.635179
412.127533,2.628630
411.128784,2.622062
410.096741,2.615223
409.098022,2.608572
408.099243,2.601980
407.067230,2.595004
406.068481,2.588470
405.069702,2.581986
404.037689,2.575022
403.038910,2.568448
402.040161,2.561810
401.008118,2.554785
400.009369,2.548415
399.010620,2.541849
397.978607,2.534955
396.979797,2.528419
395.981079,2.521930
394.949005,2.514889
393.950256,2.508350
392.951538,2.501800
391.919495,2.494862
390.920715,2.488387
389.921997,2.481871
388.889893,2.474893
387.891144,2.468426
386.892426,2.461984
385.860382,2.454741
384.861633,2.448327
383.862885,2.442055
382.830811,2.434830
381.832031,2.428610
380.833282,2.421878
379.801239,2.415075
378.802521,2.408436
377.803772,2.402091
376.771698,2.395089
375.772919,2.388620
374.774170,2.382285
373.742157,2.375095
372.743378,2.368761
371.744659,2.362499
370.712555,2.355410
369.713837,2.349370
368.715057,2.342425
367.683044,2.335337
366.684296,2.328899
365.685516,2.322539
364.653442,2.315850
363.654724,2.309293
362.622681,2.302658
361.623901,2.296243
360.625153,2.289690
359.593109,2.283009
358.594330,2.276447
357.595612,2.269981
356.563568,2.263151
355.564758,2.256622
354.566010,2.250150
353.533997,2.243333
352.535248,2.236866
351.536469,2.230421
350.504425,2.223583
349.505646,2.217099
348.506927,2.210653
347.474854,2.203840
346.476105,2.197323
345.477325,2.190911
344.445282,2.183900
343.446533,2.177586
342.447784,2.171276
341.415710,2.164309
340.416962,2.158242
339.418213,2.151456
338.386139,2.144509
337.387360,2.138223
336.388641,2.131795
335.356598,2.125102
334.357849,2.118653
333.359039,2.112108
332.326996,2.105456
331.328247,2.099007
330.329498,2.092582
329.297424,2.086041
328.298645,2.079221
327.299927,2.072877
326.267853,2.066404
325.269073,2.059809
324.270355,2.053772
323.238281,2.046866
322.239502,2.040142
321.240784,2.033585
320.208710,2.026866
319.209961,2.020421
318.211212,2.013914
317.179138,2.007270
316.180359,2.000803
315.181641,1.994568
314.149536,1.987785
313.150787,1.981563
312.152069,1.975133
311.119995,1.968263
310.121185,1.961906
309.089172,1.955341
308.090393,1.948709
307.091644,1.942472
306.059570,1.935973
305.060852,1.929447
304.062042,1.923466
303.029999,1.916751
302.031219,1.910167
301.032471,1.903524
300.000427,1.896679
299.001678,1.890186
298.002899,1.883705
296.970825,1.877237
295.972076,1.870579
294.973328,1.864427
293.941254,1.858018
292.942474,1.851472
291.943726,1.845519
290.911652,1.838727
289.912903,1.832317
288.914154,1.825970
287.882080,1.818844
286.883301,1.812387
285.884552,1.806251
284.852478,1.799346
283.853729,1.793346
282.854980,1.787147
281.822876,1.780410
280.824127,1.774306
279.825317,1.767604
278.793304,1.760968
277.794556,1.754157
276.795776,1.747723
275.763702,1.741283
274.764984,1.734691
273.766174,1.728581
272.734131,1.722086
271.735382,1.715665
270.736603,1.709613
269.704529,1.702958
268.705780,1.696484
267.707001,1.690045
266.674927,1.683135
265.676178,1.676580
264.677399,1.670364
263.645355,1.663509
262.646576,1.657343
261.647827,1.651102
260.615753,1.644603
259.617004,1.638272
258.584900,1.631527
257.586182,1.625121
256.587372,1.618659
255.555344,1.611963
254.556549,1.605589
253.557785,1.599205
252.525742,1.592563
251.526947,1.586154
250.528183,1.579842
249.496140,1.573185
248.497330,1.566786
247.498581,1.560457
246.466522,1.554012
245.467773,1.547469
244.468964,1.541179
243.436951,1.534610
242.438156,1.528326
241.439392,1.521939
240.407318,1.515254
239.408585,1.509002
238.409760,1.502583
237.377716,1.495950
236.378922,1.489619
235.380157,1.483277
234.348114,1.476722
233.349335,1.470407
232.350586,1.464024
231.318527,1.457459
230.319733,1.451210
229.320969,1.444752
228.288895,1.438185
227.290115,1.431890
226.291382,1.425547
225.259277,1.418880
224.260529,1.412691
223.261749,1.406271
222.229706,1.399819
221.230927,1.393592
220.232147,1.387155
219.200073,1.380812
218.201324,1.374540
217.202515,1.368294
216.170486,1.361769
215.171677,1.355443
214.172928,1.349051
213.140839,1.342413
212.142090,1.336029
211.143280,1.329653
210.111252,1.323068
209.112442,1.316632
208.113693,1.310325
207.081604,1.303597
206.082840,1.297312
205.050766,1.290696
204.052017,1.284443
203.053238,1.278179
202.021164,1.271541
201.022385,1.265226
200.023605,1.258847
198.991516,1.252350
197.992783,1.246074
196.994003,1.239679
195.961929,1.233127
194.963150,1.226886
193.964371,1.220542
192.932281,1.213935
191.933533,1.207706
190.934753,1.201320
189.902695,1.194816
188.903946,1.188483
187.905136,1.182217
186.873108,1.175648
185.874298,1.169346
184.875549,1.163031
183.843445,1.156435
182.844696,1.150153
181.845901,1.143854
180.813843,1.137365
179.815063,1.131094
178.816269,1.124716
177.784180,1.118148
176.785431,1.111890
175.786636,1.105496
174.754608,1.098915
173.755783,1.092618
172.757034,1.086221
171.724945,1.079814
170.726196,1.073496
169.727371,1.067190
168.695328,1.060571
167.696548,1.054354
166.697769,1.048050
165.665665,1.041488
164.666916,1.035296
163.668106,1.028997
162.636078,1.022524
161.637283,1.016257
160.638535,1.009872
159.606430,1.003357
158.607651,0.996986
157.608841,0.990635
156.576813,0.984101
155.578003,0.977803
154.545944,0.971277
153.547165,0.965157
152.548386,0.958802
151.516296,0.952266
150.517532,0.945961
149.518738,0.939627
148.486664,0.933052
147.487885,0.926763
146.489105,0.920401
145.457016,0.913865
144.458267,0.907609
143.459503,0.901255
142.427399,0.894705
141.428650,0.888462
140.429840,0.882163
139.397781,0.875644
138.399002,0.869289
137.400223,0.863021
136.368118,0.856475
135.369385,0.850192
134.370560,0.843925
133.338501,0.837388
132.339691,0.831107
131.340958,0.824838
130.308853,0.818280
129.310074,0.811992
128.311264,0.805643
127.279228,0.799133
126.280426,0.792900
125.281647,0.786690
124.249550,0.780038
123.250801,0.773818
122.251991,0.767519
121.219940,0.760918
120.221115,0.754689
119.222366,0.748348
118.190239,0.741869
117.191505,0.735582
116.192688,0.729352
115.160629,0.722770
114.161819,0.716496
113.163063,0.710184
112.130974,0.703730
111.132202,0.697434
110.133385,0.691215
109.101326,0.684570
108.102509,0.678355
107.103767,0.672068
106.071671,0.665504
105.072891,0.659233
104.074081,0.652999
103.042015,0.646481
102.043213,0.640209
101.011185,0.633610
100.012398,0.627439
99.013596,0.621066
97.981529,0.614657
96.982719,0.608253
95.983971,0.602040
94.951881,0.595514
93.953102,0.589207
92.954285,0.582929
91.922226,0.576354
90.923409,0.570121
89.924667,0.563865
88.892548,0.557337
87.893791,0.551071
86.894981,0.544861
85.862923,0.538297
84.864113,0.532087
83.865334,0.525666
82.833237,0.519124
81.834457,0.512875
80.835648,0.506595
79.803581,0.500052
78.804771,0.493984
77.806030,0.487597
76.773903,0.481123
75.775154,0.474922
74.776337,0.468501
73.744286,0.462040
72.745476,0.455687
71.746696,0.449341
70.714600,0.442998
69.715820,0.436669
68.717003,0.430485
67.684944,0.424029
66.686142,0.417767
65.687355,0.411450
64.655266,0.404917
63.656487,0.398544
62.657673,0.392371
61.625610,0.385722
60.626797,0.379447
59.628021,0.373311
58.595932,0.366804
57.597145,0.360652
56.598400,0.354362
55.566277,0.347692
54.567528,0.341533
53.568687,0.335122
52.536625,0.328561
51.537811,0.322436
50.505753,0.315837
49.506939,0.309784
48.508160,0.303601
47.476070,0.296974
46.477287,0.290714
45.478477,0.284361
44.446415,0.277732
43.447601,0.271535
42.448826,0.265169
41.416702,0.258767
40.417953,0.252664
39.419140,0.246288
38.387077,0.239950
37.388233,0.233650
36.389488,0.227206
35.357365,0.220767
34.358585,0.214336
33.359772,0.208129
32.327709,0.201758
31.328901,0.195450
30.330120,0.189360
29.297997,0.182928
28.299248,0.176488
27.300406,0.170220
26.268345,0.163568
25.269531,0.157242
24.270754,0.151084
23.238661,0.144522
22.239880,0.138366
21.241070,0.132334
20.209009,0.125682
19.210163,0.119543
18.211416,0.113125
17.179293,0.106405
16.180511,0.100232
15.181702,0.093882
14.149640,0.087539
13.150796,0.081470
12.152049,0.075080
11.119988,0.068695
10.121144,0.062315
9.122396,0.055796
8.090272,0.049405
7.091493,0.043110
6.092681,0.036898
5.060620,0.030612
4.061809,0.024323
3.062997,0.018336
2.030904,0.011795
1.032093,0.005869
0.000000,0.001799
-0.998747,0.006663
-1.997624,0.013050
-3.029652,0.019914
-4.028464,0.026047
-5.027276,0.032723
-6.059368,0.039348
-7.058115,0.045172
-8.056992,0.051635
-9.089020,0.057733
-10.087896,0.063808
-11.086643,0.070335
-12.118735,0.076597
-13.117547,0.083182
-14.116360,0.089816
-15.148452,0.096138
-16.147263,0.102469
-17.146011,0.108828
-18.178169,0.115036
-19.176916,0.121331
-20.175728,0.127267
-21.207819,0.133537
-22.206633,0.140162
-23.205444,0.146303
-24.237535,0.153110
-25.236284,0.159577
-26.235159,0.165703
-27.267187,0.172379
-28.266064,0.178402
-29.264811,0.184583
-30.296968,0.191101
-31.295717,0.197183
-32.294464,0.203474
-33.326618,0.210041
-34.325367,0.216034
-35.324245,0.222446
-36.356274,0.229287
-37.355083,0.235413
-38.353897,0.241905
-39.385986,0.248512
-40.384800,0.254373
-41.383614,0.260725
-42.415703,0.266973
-43.414516,0.273093
-44.413265,0.279710
-45.445419,0.286135
-46.444168,0.292635
-47.443043,0.299168
-48.475071,0.305428
-49.473949,0.311816
-50.472694,0.317879
-51.504852,0.324067
-52.503601,0.330511
-53.535759,0.336837
-54.534504,0.343161
-55.533318,0.349716
-56.565411,0.356166
-57.564224,0.362659
-58.563034,0.368951
-59.595127,0.375197
-60.593937,0.381531
-61.592751,0.387492
-62.624840,0.393929
-63.623653,0.400552
-64.622467,0.406658
-65.654556,0.413445
-66.653366,0.419886
-67.652184,0.425899
-68.684273,0.432543
-69.683090,0.438611
-70.681831,0.444617
-71.713989,0.451302
-72.712738,0.457385
-73.711617,0.463762
-74.743645,0.470488
-75.742516,0.476618
-76.741264,0.483097
-77.773361,0.489757
-78.772171,0.495902
-79.770981,0.502266
-80.803070,0.508550
-81.801888,0.514538
-82.800697,0.521036
-83.832787,0.527408
-84.831604,0.533878
-85.830414,0.540265
-86.862572,0.546747
-87.861313,0.553226
-88.860130,0.559358
-89.892227,0.565633
-90.891098,0.572022
-91.889847,0.578273
-92.921997,0.584660
-93.920753,0.591073
-94.919624,0.597318
-95.951653,0.604004
-96.950531,0.610431
-97.949280,0.616571
-98.981438,0.623050
-99.980179,0.629229
-100.979065,0.635309
-102.011093,0.642092
-103.009964,0.648219
-104.008705,0.654625
-105.040863,0.661427
-106.039619,0.667485
-107.071777,0.674129
-108.070587,0.680458
-109.069389,0.686427
-110.101486,0.693028
-111.100304,0.699209
-112.099113,0.705505
-113.131271,0.712283
-114.130020,0.718472
-115.128899,0.724885
-116.160927,0.731470
-117.159798,0.737561
-118.158554,0.743949
-119.190704,0.750341
-120.189453,0.756501
-121.188255,0.762942
-122.220421,0.769431
-123.219162,0.775738
-124.218033,0.782256
-125.250061,0.788658
-126.248947,0.795007
-127.247688,0.801392
-128.279846,0.807891
-129.278656,0.814271
-130.277481,0.820429
-131.309555,0.827075
-132.308380,0.833279
-133.307190,0.839593
-134.339355,0.846126
-135.338089,0.852384
-136.336975,0.858598
-137.369003,0.865232
-138.367874,0.871462
-139.366684,0.877761
-140.398773,0.884221
-141.397583,0.890536
-142.396408,0.896787
-143.428497,0.903265
-144.427368,0.909569
-145.426117,0.915902
-146.458282,0.922474
-147.457077,0.928719
-148.455902,0.935068
-149.487991,0.941700
-150.486877,0.947844
-151.485611,0.954192
-152.517776,0.960751
-153.516525,0.967008
-154.515396,0.973460
-155.547485,0.980046
-156.546295,0.986363
-157.578400,0.992925
-158.577271,0.999139
-159.576004,1.005466
-160.608170,1.011994
-161.606918,1.018147
-162.605804,1.024603
-163.637894,1.031125
-164.636765,1.037526
-165.635513,1.043867
-166.667603,1.050383
-167.666428,1.056734
-168.665222,1.063016
-169.697372,1.069524
-170.696136,1.075850
-171.695007,1.082194
-172.727097,1.088632
-173.725922,1.095045
-174.724731,1.101324
-175.756882,1.107926
-176.755630,1.114230
-177.754501,1.120458
-178.786606,1.127015
-179.785477,1.133335
-180.784225,1.139586
-181.816376,1.146228
-182.815125,1.152563
-183.813995,1.158893
-184.846100,1.165505
-185.844971,1.171769
-186.843719,1.178009
-187.875870,1.184630
-188.874695,1.190817
-189.873505,1.197205
-190.905594,1.203820
-191.904465,1.210086
-192.903214,1.216506
-193.935364,1.223115
-194.934189,1.229307
-195.933060,1.235674
-196.965088,1.242171
-197.963959,1.248516
-198.962769,1.254939
-199.994934,1.261479
-200.993683,1.267841
-201.992554,1.274126
-203.024643,1.280638
-204.023468,1.287059
-205.022263,1.293290
-206.054428,1.299790
-207.053177,1.306242
-208.085403,1.312785
-209.084137,1.319135
-210.082886,1.325509
-211.115112,1.332057
-212.113861,1.338414
-213.112732,1.344761
-214.144836,1.351296
-215.143646,1.357615
-216.142456,1.363894
-217.174606,1.370454
-218.173355,1.376795
-219.172241,1.383188
-220.204330,1.389798
-221.203201,1.396103
-222.201950,1.402506
-223.234177,1.409204
-224.232925,1.415516
-225.231796,1.421831
-226.263885,1.428531
-227.262772,1.434825
-228.261505,1.441170
-229.293671,1.447771
-230.292496,1.454098
-231.291367,1.460535
-232.323380,1.467082
-233.322250,1.473395
-234.321075,1.479777
-235.353226,1.486343
-236.351990,1.492680
-237.350861,1.499106
-238.382965,1.505625
-239.381836,1.512042
-240.380569,1.518301
-241.412811,1.525079
-242.411545,1.531384
-243.410416,1.537768
-244.442505,1.544390
-245.441391,1.550745
-246.440125,1.557094
-247.472305,1.563669
-248.471100,1.570042
-249.469971,1.576462
-250.502060,1.583081
-251.500946,1.589377
-252.499710,1.595806
-253.531860,1.602422
-254.530670,1.608809
-255.529404,1.615267
-256.561554,1.621727
-257.560394,1.628066
-258.559265,1.634512
-259.591339,1.640847
-260.590240,1.647273
-261.622253,1.654001
-262.621124,1.660400
-263.619934,1.666984
-264.652100,1.673601
-265.650909,1.679920
-266.649780,1.686300
-267.681824,1.692805
-268.680695,1.699140
-269.679504,1.705478
-270.711670,1.712072
-271.710449,1.718664
-272.709351,1.725101
-273.741425,1.731813
-274.740295,1.738341
-275.739075,1.744554
-276.771210,1.751157
-277.770050,1.757587
-278.768921,1.763817
-279.800995,1.770460
-280.799866,1.776740
-281.798615,1.783101
-282.830841,1.789863
-283.829590,1.796319
-284.828461,1.802739
-285.860565,1.809668
-286.859436,1.815995
-287.858246,1.822445
-288.890411,1.829261
-289.889130,1.835444
-290.888000,1.841758
-291.920105,1.848480
-292.918976,1.854589
-293.917816,1.860996
-294.949951,1.867696
-295.948761,1.874036
-296.947662,1.880703
-297.979736,1.887571
-298.978485,1.893973
-299.977356,1.900664
-301.009460,1.907179
-302.008331,1.913434
-303.007141,1.920060
-304.039307,1.926477
-305.038116,1.932913
-306.036987,1.939059
-307.069031,1.945750
-308.067963,1.952160
-309.066711,1.958737
-310.098877,1.965509
-311.097656,1.971845
-312.129852,1.978727
-313.128632,1.985215
-314.127502,1.991709
-315.159607,1.998420
-316.158478,2.004936
-317.157318,2.011402
-318.189453,2.018163
-319.188263,2.024649
-320.187134,2.031052
-321.219177,2.037738
-322.218109,2.044168
-323.216858,2.050702
-324.249084,2.057415
-325.247833,2.063810
-326.246704,2.070249
-327.278809,2.077119
-328.277679,2.083449
-329.276489,2.089945
-330.308655,2.096733
-331.307465,2.103068
-332.306335,2.109601
-333.338440,2.116318
-334.337311,2.122806
-335.336121,2.129293
-336.368286,2.135982
-337.367096,2.142490
-338.365967,2.148889
-339.398071,2.155705
-340.396942,2.162163
-341.395691,2.168579
-342.427917,2.175284
-343.426697,2.181838
-344.425476,2.188354
-345.457672,2.195101
-346.456451,2.201546
-347.455322,2.208070
-348.487396,2.214819
-349.486267,2.221470
-350.485077,2.228018
-351.517242,2.234724
-352.516052,2.241081
-353.514923,2.247701
-354.547028,2.254475
-355.545898,2.260920
-356.544708,2.267408
-357.576843,2.274122
-358.575684,2.280673
-359.574554,2.287184
-360.606659,2.293923
-361.605530,2.300641
-362.604340,2.307240
-363.636536,2.313936
-364.635315,2.320464
-365.667511,2.327392
-366.666290,2.333709
-367.665222,2.340254
-368.697266,2.346992
-369.696167,2.353554
-370.694916,2.360025
-371.727142,2.366958
-372.725891,2.373458
-373.724854,2.380068
-374.756927,2.386854
-375.755829,2.393351
-376.754608,2.400110
-377.786774,2.406895
-378.785583,2.413428
-379.784454,2.420088
-380.816559,2.426809
-381.815430,2.433264
-382.814240,2.439883
-383.846405,2.446684
-384.845215,2.453230
-385.844086,2.459901
-386.876190,2.466716
-387.875000,2.473249
-388.873871,2.479785
-389.905975,2.486721
-390.904846,2.493260
-391.903625,2.499818
-392.935883,2.506761
-393.934601,2.513177
-394.933563,2.519817
-395.965576,2.526605
-396.964539,2.533105
-397.963287,2.539621
-398.995514,2.546485
-399.994293,2.553356
-400.993195,2.559914
-402.025269,2.566702
-403.024139,2.573545
-404.022949,2.580072
-405.055115,2.586730
-406.053925,2.593580
-407.052887,2.599790
-408.084900,2.607080
-409.083832,2.613756
-410.082581,2.620266
-411.114807,2.627077
-412.113617,2.633714
-413.112488,2.640302
-414.144592,2.647232
-415.143463,2.653803
-416.175568,2.660514
-417.174500,2.667217
-418.173248,2.673715
-419.205475,2.680824
-420.204285,2.687417
-421.203156,2.694133
-422.235260,2.701047
-423.234131,2.707671
-424.232941,2.714295
-425.265137,2.721140
-426.263916,2.727900
-427.262848,2.734599
-428.294952,2.741639
-429.293823,2.748195
-430.292633,2.754733
-431.324829,2.761760
-432.323608,2.768461
-433.322418,2.775104
-434.354614,2.782163
-435.353394,2.788666
-436.352325,2.795533
-437.384430,2.802452
-438.383301,2.809241
-439.382111,2.815983
-440.414307,2.822903
-441.413086,2.829340
-442.412018,2.836177
-443.444092,2.843169
-444.442993,2.849773
-445.441803,2.856618
-446.473938,2.863687
-447.472778,2.870213
-448.471710,2.877014
-449.503784,2.884218
-450.502655,2.890634
-451.501495,2.897818
-452.533691,2.904761
-453.532471,2.911155
-454.531403,2.917890
-455.563477,2.924995
-456.562347,2.931513
-457.561188,2.938936
-458.593414,2.945658
-459.592163,2.952281
-460.591095,2.959274
-461.623169,2.966313
-462.622070,2.972698
-463.620880,2.979890
-464.653107,2.986585
-465.651825,2.993579
-466.650787,3.000497
-467.682861,3.007361
-468.681824,3.014102
-469.713837,3.021260
-470.712799,3.027742
-471.711578,3.034379
-472.743805,3.041917
-473.742554,3.048425
-474.741516,3.055450
-475.773590,3.062567
-476.772308,3.069211
-477.771271,3.075699
-478.803345,3.083303
-479.802307,3.089940
-480.801025,3.096531
-481.833252,3.104084
-482.832123,3.110656
-483.830963,3.117429
-484.863068,3.124472
-485.861969,3.127900
-486.860840,3.126932
-487.893005,3.127200
-488.891815,3.126773
-489.890717,3.127256
